SpectraSuite Data File
++++++++++++++++++++++++++++++++++++
Date: Mon Nov 09 12:19:54 BRST 2020
User: Administrador
Dark Spectrum Present: No
Reference Spectrum Present: No
Number of Sampled Component Spectra: 1
Spectrometers: USB4F02573
Integration Time (usec): 100000 (USB4F02573)
Spectra Averaged: 1 (USB4F02573)
Boxcar Smoothing: 0 (USB4F02573)
Correct for Electrical Dark: Yes (USB4F02573)
Strobe/Lamp Enabled: No (USB4F02573)
Correct for Detector Non-linearity: No (USB4F02573)
Correct for Stray Light: No (USB4F02573)
Number of Pixels in Processed Spectrum: 3648
>>>>>Begin Processed Spectral Data<<<<<
345,22	-73,77
345,44	-73,77
345,66	-73,77
345,88	-114,73
346,10	-127,02
346,32	26,58
346,54	96,21
346,75	45,01
346,97	45,01
347,19	83,92
347,41	141,26
347,63	71,63
347,85	49,11
348,07	81,87
348,29	122,83
348,51	69,59
348,73	73,68
348,95	-2,09
349,16	348,11
349,38	520,14
349,60	518,09
349,82	491,47
350,04	483,28
350,26	563,15
350,48	675,78
350,70	489,42
350,92	513,99
351,14	667,59
351,35	636,87
351,57	610,25
351,79	577,48
352,01	487,37
352,23	540,62
352,45	548,81
352,67	548,81
352,89	538,57
353,10	513,99
353,32	538,57
353,54	643,02
353,76	591,82
353,98	671,69
354,20	640,97
354,42	516,04
354,64	591,82
354,85	602,06
355,07	550,86
355,29	632,78
355,51	552,91
355,73	573,39
355,95	411,60
356,17	575,43
356,38	587,72
356,60	548,81
356,82	573,39
357,04	544,71
357,26	503,75
357,48	645,06
357,69	550,86
357,91	595,91
358,13	628,68
358,35	643,02
358,57	655,30
358,79	657,35
359,01	616,39
359,22	690,12
359,44	634,82
359,66	618,44
359,88	417,74
360,10	622,54
360,32	600,01
360,53	507,85
360,75	593,87
360,97	477,13
361,19	561,10
361,41	614,35
361,62	552,91
361,84	550,86
362,06	573,39
362,28	579,53
362,50	688,07
362,72	575,43
362,93	491,47
363,15	530,38
363,37	563,15
363,59	581,58
363,81	499,66
364,02	655,30
364,24	526,28
364,46	634,82
364,68	550,86
364,90	665,54
365,11	559,05
365,33	575,43
365,55	503,75
365,77	542,67
365,99	536,52
366,20	640,97
366,42	571,34
366,64	581,58
366,86	579,53
367,07	567,24
367,29	464,84
367,51	489,42
367,73	575,43
367,95	643,02
368,16	649,16
368,38	571,34
368,60	585,67
368,82	589,77
369,03	657,35
369,25	645,06
369,47	513,99
369,69	585,67
369,91	683,98
370,12	577,48
370,34	522,19
370,56	511,95
370,78	630,73
370,99	735,18
371,21	714,70
371,43	632,78
371,65	534,47
371,86	630,73
372,08	745,42
372,30	626,63
372,52	681,93
372,73	511,95
372,95	567,24
373,17	542,67
373,39	485,32
373,60	591,82
373,82	581,58
374,04	622,54
374,26	640,97
374,47	630,73
374,69	548,81
374,91	628,68
375,12	673,74
375,34	608,20
375,56	640,97
375,78	606,15
375,99	628,68
376,21	702,41
376,43	620,49
376,65	710,60
376,86	671,69
377,08	597,96
377,30	640,97
377,51	630,73
377,73	616,39
377,95	567,24
378,17	626,63
378,38	624,58
378,60	704,46
378,82	669,64
379,03	622,54
379,25	745,42
379,47	735,18
379,68	636,87
379,90	485,32
380,12	688,07
380,34	638,92
380,55	733,13
380,77	729,03
380,99	679,88
381,20	810,95
381,42	640,97
381,64	683,98
381,85	675,78
382,07	708,55
382,29	753,61
382,50	675,78
382,72	716,74
382,94	634,82
383,15	692,17
383,37	743,37
383,59	757,70
383,80	710,60
384,02	851,91
384,24	724,94
384,45	784,33
384,67	798,66
384,89	640,97
385,10	704,46
385,32	866,25
385,54	839,62
385,75	729,03
385,97	849,86
386,19	866,25
386,40	819,14
386,62	683,98
386,84	708,55
387,05	765,89
387,27	765,89
387,49	819,14
387,70	827,33
387,92	802,76
388,14	804,81
388,35	751,56
388,57	737,22
388,79	862,15
389,00	774,09
389,22	831,43
389,43	843,72
389,65	989,12
389,87	835,53
390,08	784,33
390,30	913,35
390,52	962,50
390,73	847,81
390,95	862,15
391,17	966,60
391,38	974,79
391,60	856,01
391,81	942,02
392,03	899,01
392,25	800,71
392,46	890,82
392,68	1128,39
392,89	954,31
393,11	1058,75
393,33	958,40
393,54	1040,32
393,76	1085,38
393,98	1101,76
394,19	1021,89
394,41	1152,96
394,62	968,64
394,84	1140,67
395,06	1103,81
395,27	1157,06
395,49	1073,09
395,70	1261,50
395,92	1238,98
396,13	1253,31
396,35	1302,46
396,57	1255,36
396,78	1230,78
397,00	1327,04
397,21	1427,39
397,43	1423,29
397,65	1550,27
397,86	1509,31
398,08	1509,31
398,29	1642,43
398,51	1488,83
398,72	1632,19
398,94	1808,31
399,16	1839,03
399,37	1757,11
399,59	1904,57
399,80	1896,37
400,02	1929,14
400,23	1988,53
400,45	2088,88
400,67	2103,22
400,88	2305,97
401,10	2166,71
401,31	2162,61
401,53	2314,16
401,74	2488,24
401,96	2553,77
402,17	2660,27
402,39	2713,51
402,61	2777,00
402,82	2967,46
403,04	2946,98
403,25	3278,75
403,47	3155,87
403,68	3262,37
403,90	3600,28
404,11	3604,38
404,33	3850,14
404,54	4013,97
404,76	3852,18
404,97	4267,92
405,19	4659,08
405,41	4640,65
405,62	5064,58
405,84	4843,40
406,05	5222,27
406,27	5412,74
406,48	5635,96
406,70	5705,60
406,91	5773,18
407,13	6432,62
407,34	6707,05
407,56	6791,02
407,77	7032,68
407,99	7364,45
408,20	7937,88
408,42	8013,66
408,63	8320,85
408,85	8695,63
409,06	8984,39
409,28	9342,79
409,49	9549,63
409,71	9948,99
409,92	10233,65
410,14	10669,87
410,35	11630,37
410,57	11562,79
410,78	11833,12
411,00	12787,47
411,21	13125,39
411,43	14145,27
411,64	14388,98
411,86	14499,57
412,07	15218,41
412,29	15834,85
412,50	16422,62
412,72	17145,55
412,93	18222,78
413,15	18843,31
413,36	18640,57
413,58	19711,65
413,79	20354,72
414,01	20850,32
414,22	21825,16
414,43	23498,35
414,65	24354,40
414,86	24667,74
415,08	25019,99
415,29	25652,81
415,51	25867,85
415,72	27418,16
415,94	27723,31
416,15	28827,16
416,37	29451,79
416,58	32095,72
416,80	32312,81
417,01	32843,23
417,22	33990,09
417,44	34926,01
417,65	35675,57
417,87	36668,83
418,08	38174,09
418,30	37410,20
418,51	38399,37
418,73	38870,40
418,94	40086,89
419,15	40562,02
419,37	43480,38
419,58	42554,70
419,80	44492,08
420,01	43590,97
420,23	45757,72
420,44	47648,00
420,65	47736,06
420,87	48186,61
421,08	47045,89
421,30	49497,31
421,51	48461,04
421,73	50195,67
421,94	51154,12
422,15	51623,10
422,37	52593,84
422,58	51979,45
422,80	52982,95
423,01	55395,46
423,22	54230,17
423,44	54404,24
423,65	55200,90
423,87	55237,77
424,08	53197,99
424,29	55424,13
424,51	54901,90
424,72	55567,49
424,94	55245,96
425,15	55192,71
425,36	55905,41
425,58	54744,21
425,79	53918,88
426,01	54705,30
426,22	53329,06
426,43	55348,36
426,65	56259,70
426,86	55852,16
427,08	54797,45
427,29	54877,33
427,50	53449,89
427,72	52284,60
427,93	50466,00
428,14	51113,16
428,36	53437,60
428,57	53089,45
428,79	50846,92
429,00	49784,03
429,21	49732,83
429,43	49011,94
429,64	50275,54
429,85	48741,61
430,07	49216,74
430,28	46793,99
430,49	47693,05
430,71	47269,12
430,92	47924,47
431,14	46533,90
431,35	45921,56
431,56	45102,37
431,78	44510,51
431,99	44498,22
432,20	45974,80
432,42	43435,32
432,63	44377,39
432,84	43238,72
433,06	40383,85
433,27	41207,13
433,48	41586,01
433,70	40164,72
433,91	38581,64
434,12	38112,65
434,34	38571,40
434,55	38823,30
434,76	38382,98
434,98	36466,09
435,19	36914,59
435,40	36103,60
435,62	35429,81
435,83	35087,80
436,04	34487,75
436,26	34186,70
436,47	32198,12
436,68	31264,25
436,90	32302,57
437,11	31946,22
437,32	32085,48
437,54	32245,22
437,75	30141,96
437,96	30735,87
438,17	29873,67
438,39	28368,42
438,60	27962,92
438,81	27676,20
439,03	29095,45
439,24	28634,65
439,45	27987,50
439,67	26695,23
439,88	26097,22
440,09	24917,59
440,30	25239,12
440,52	24047,20
440,73	24604,25
440,94	23991,91
441,16	23338,61
441,37	22881,91
441,58	22466,17
441,80	22922,87
442,01	21896,84
442,22	21751,43
442,43	20715,16
442,65	20903,57
442,86	19769,00
443,07	20145,82
443,28	19136,17
443,50	20098,72
443,71	19654,31
443,92	18697,91
444,14	17819,33
444,35	18366,14
444,56	17882,82
444,77	18067,13
444,99	16461,53
445,20	16422,62
445,41	16346,84
445,62	16529,11
445,84	15873,76
446,05	15978,21
446,26	16115,42
446,47	14200,57
446,69	14106,36
446,90	14862,06
447,11	14214,91
447,32	13502,21
447,54	13524,74
447,75	13401,86
447,96	12721,94
448,17	12562,19
448,39	13006,60
448,60	11636,51
448,81	12003,10
449,02	11734,82
449,23	11648,80
449,45	12039,96
449,66	11216,68
449,87	10895,15
450,08	10698,54
450,30	10280,76
450,51	10395,44
450,72	10374,96
450,93	10485,55
451,15	10147,64
451,36	9477,95
451,57	9496,39
451,78	9264,97
451,99	9543,49
452,21	9508,67
452,42	8972,11
452,63	8691,53
452,84	8234,84
453,05	8533,84
453,27	8144,73
453,48	8288,08
453,69	7743,32
453,90	8212,31
454,11	8036,18
454,33	7368,55
454,54	7597,92
454,75	7722,84
454,96	7716,70
455,17	7247,72
455,39	7114,60
455,60	7178,08
455,81	7188,32
456,02	6692,72
456,23	6438,77
456,45	6688,62
456,66	6350,71
456,87	6248,31
457,08	6539,12
457,29	6342,51
457,50	6010,74
457,72	5941,11
457,93	5746,55
458,14	6066,04
458,35	5861,24
458,56	5767,03
458,77	5422,98
458,99	5437,31
459,20	5246,85
459,41	5349,25
459,62	4892,55
459,83	5048,20
460,04	5169,03
460,26	5060,49
460,47	4847,50
460,68	4673,42
460,89	4687,75
461,10	4575,12
461,31	4759,43
461,52	4548,49
461,74	4417,42
461,95	4317,07
462,16	4300,69
462,37	4329,36
462,58	4140,95
462,79	4206,48
463,00	4181,91
463,22	4114,32
463,43	3964,82
463,64	3919,77
463,85	3751,83
464,06	3846,04
464,27	3778,46
464,48	3618,72
464,70	3692,44
464,91	3708,83
465,12	3680,15
465,33	3796,89
465,54	3588,00
465,75	3667,87
465,96	3512,22
466,17	3456,93
466,38	3444,64
466,60	3280,80
466,81	3266,46
467,02	3420,06
467,23	3166,11
467,44	3125,15
467,65	3043,24
467,86	3305,38
468,07	3338,14
468,28	3190,69
468,50	2949,03
468,71	3159,97
468,92	3069,86
469,13	2916,26
469,34	2996,13
469,55	3028,90
469,76	2916,26
469,97	2895,78
470,18	3047,33
470,39	2961,32
470,60	2783,14
470,82	2695,08
471,03	2670,51
471,24	2850,73
471,45	2703,27
471,66	2744,23
471,87	2719,66
472,08	2617,26
472,29	2588,59
472,50	2617,26
472,71	2502,57
472,92	2371,50
473,13	2508,72
473,34	2688,94
473,55	2457,52
473,77	2551,72
473,98	2586,54
474,19	2551,72
474,40	2404,27
474,61	2465,71
474,82	2381,74
475,03	2449,33
475,24	2142,13
475,45	2467,76
475,66	2320,30
475,87	2305,97
476,08	2371,50
476,29	2494,38
476,50	2344,88
476,71	2277,30
476,92	2203,57
477,13	2328,49
477,34	2250,67
477,55	2394,03
477,76	2183,09
477,97	2146,23
478,18	2236,34
478,40	2254,77
478,61	2152,37
478,82	2172,85
479,03	2084,79
479,24	2172,85
479,45	2174,90
479,66	2193,33
479,87	2189,23
480,08	1916,85
480,29	2105,27
480,50	2156,47
480,71	2031,54
480,92	2009,01
481,13	1955,76
481,34	1959,86
481,55	1953,72
481,76	1957,81
481,97	2043,83
482,18	1904,57
482,39	1826,74
482,60	1908,66
482,81	1859,51
483,02	1941,43
483,23	1884,09
483,44	1755,06
483,65	1828,79
483,86	1959,86
484,07	1857,46
484,28	1933,24
484,49	1810,36
484,70	1900,47
484,91	1693,62
485,12	1925,05
485,33	1697,72
485,54	1791,93
485,75	1611,71
485,96	1601,47
486,17	1787,83
486,38	1574,84
486,59	1658,81
486,80	1667,00
487,01	1724,34
487,21	1712,06
487,42	1638,33
487,63	1767,35
487,84	1550,27
488,05	1718,20
488,26	1785,78
488,47	1572,79
488,68	1482,68
488,89	1761,21
489,10	1652,67
489,31	1585,08
489,52	1552,31
489,73	1517,50
489,94	1671,10
490,15	1683,38
490,36	1593,27
490,57	1595,32
490,78	1474,49
490,99	1574,84
491,20	1421,24
491,41	1707,96
491,61	1720,25
491,82	1537,98
492,03	1503,16
492,24	1435,58
492,45	1451,96
492,66	1445,82
492,87	1458,11
493,08	1501,12
493,29	1314,75
493,50	1540,03
493,71	1435,58
493,92	1503,16
494,13	1519,55
494,34	1329,09
494,54	1458,11
494,75	1396,67
494,96	1447,87
495,17	1494,97
495,38	1337,28
495,59	1253,31
495,80	1462,20
496,01	1411,00
496,22	1339,33
496,43	1302,46
496,64	1343,42
496,84	1415,10
497,05	1408,96
497,26	1341,37
497,47	1310,65
497,68	1392,57
497,89	1273,79
498,10	1349,57
498,31	1421,24
498,52	1339,33
498,72	1341,37
498,93	1312,70
499,14	1216,45
499,35	1263,55
499,56	1181,63
499,77	1206,21
499,98	1259,46
500,19	1220,54
500,40	1195,97
500,60	1130,43
500,81	1316,80
501,02	1224,64
501,23	1130,43
501,44	1306,56
501,65	1218,50
501,86	1173,44
502,06	1189,82
502,27	1251,26
502,48	1251,26
502,69	1232,83
502,90	1302,46
503,11	1175,49
503,32	1349,57
503,53	1138,63
503,73	1204,16
503,94	1247,17
504,15	1257,41
504,36	1171,39
504,57	1099,71
504,78	1183,68
504,98	1243,07
505,19	1105,86
505,40	1175,49
505,61	1083,33
505,82	1058,75
506,03	1247,17
506,23	1187,78
506,44	1224,64
506,65	1308,61
506,86	1161,15
507,07	1105,86
507,28	1085,38
507,48	1163,20
507,69	1062,85
507,90	1064,90
508,11	1036,23
508,32	1159,10
508,53	1193,92
508,73	1171,39
508,94	1109,95
509,15	1224,64
509,36	1038,27
509,57	1066,95
509,77	1142,72
509,98	1054,66
510,19	1040,32
510,40	1122,24
510,61	1071,04
510,81	1107,91
511,02	1202,11
511,23	1034,18
511,44	1025,99
511,65	1038,27
511,85	1101,76
512,06	1073,09
512,27	1036,23
512,48	1042,37
512,69	1128,39
512,89	1130,43
513,10	997,32
513,31	1044,42
513,52	1189,82
513,73	1046,47
513,93	1122,24
514,14	1109,95
514,35	1185,73
514,56	1040,32
514,76	1093,57
514,97	1230,78
515,18	1167,30
515,39	1073,09
515,60	1058,75
515,80	1126,34
516,01	1040,32
516,22	1177,54
516,43	931,78
516,63	1089,47
516,84	1234,88
517,05	999,36
517,26	1087,43
517,46	1097,67
517,67	1120,19
517,88	931,78
518,09	974,79
518,29	937,92
518,50	1075,14
518,71	974,79
518,92	1077,19
519,12	1089,47
519,33	1021,89
519,54	942,02
519,75	1118,15
519,95	1032,13
520,16	1060,80
520,37	882,63
520,57	978,88
520,78	1155,01
520,99	935,88
521,20	999,36
521,40	948,16
521,61	1150,91
521,82	1036,23
522,03	929,73
522,23	1038,27
522,44	980,93
522,65	1011,65
522,85	962,50
523,06	901,06
523,27	1032,13
523,48	970,69
523,68	899,01
523,89	980,93
524,10	892,87
524,30	1009,60
524,51	921,54
524,72	989,12
524,93	931,78
525,13	1005,51
525,34	944,07
525,55	931,78
525,75	976,84
525,96	946,12
526,17	858,05
526,37	1038,27
526,58	847,81
526,79	856,01
526,99	890,82
527,20	972,74
527,41	931,78
527,62	929,73
527,82	909,25
528,03	907,20
528,24	1011,65
528,44	901,06
528,65	815,05
528,86	913,35
529,06	868,29
529,27	890,82
529,48	817,09
529,68	962,50
529,89	911,30
530,10	933,83
530,30	882,63
530,51	968,64
530,72	929,73
530,92	856,01
531,13	884,68
531,34	921,54
531,54	982,98
531,75	978,88
531,96	1032,13
532,16	860,10
532,37	939,97
532,57	968,64
532,78	911,30
532,99	856,01
533,19	976,84
533,40	968,64
533,61	919,49
533,81	876,49
534,02	827,33
534,23	868,29
534,43	796,61
534,64	876,49
534,84	907,20
535,05	825,29
535,26	886,72
535,46	870,34
535,67	935,88
535,88	888,77
536,08	872,39
536,29	970,69
536,49	794,57
536,70	819,14
536,91	737,22
537,11	905,16
537,32	884,68
537,53	819,14
537,73	1044,42
537,94	757,70
538,14	1001,41
538,35	835,53
538,56	829,38
538,76	780,23
538,97	835,53
539,17	716,74
539,38	896,96
539,59	892,87
539,79	915,40
540,00	896,96
540,20	823,24
540,41	862,15
540,62	1187,78
540,82	806,85
541,03	882,63
541,23	878,53
541,44	841,67
541,64	909,25
541,85	839,62
542,06	851,91
542,26	712,65
542,47	894,92
542,67	882,63
542,88	880,58
543,08	815,05
543,29	905,16
543,50	925,64
543,70	935,88
543,91	827,33
544,11	880,58
544,32	915,40
544,52	923,59
544,73	753,61
544,94	821,19
545,14	741,32
545,35	794,57
545,55	853,96
545,76	960,45
545,96	813,00
546,17	778,18
546,37	802,76
546,58	856,01
546,78	704,46
546,99	831,43
547,20	841,67
547,40	952,26
547,61	886,72
547,81	788,42
548,02	815,05
548,22	790,47
548,43	937,92
548,63	870,34
548,84	899,01
549,04	784,33
549,25	751,56
549,45	782,28
549,66	755,65
549,86	765,89
550,07	700,36
550,27	784,33
550,48	788,42
550,69	901,06
550,89	847,81
551,10	712,65
551,30	903,11
551,51	790,47
551,71	939,97
551,92	870,34
552,12	810,95
552,33	786,37
552,53	780,23
552,74	886,72
552,94	888,77
553,15	759,75
553,35	849,86
553,56	765,89
553,76	761,80
553,97	864,20
554,17	753,61
554,38	896,96
554,58	884,68
554,79	755,65
554,99	698,31
555,19	776,13
555,40	806,85
555,60	792,52
555,81	798,66
556,01	810,95
556,22	878,53
556,42	737,22
556,63	694,22
556,83	782,28
557,04	853,96
557,24	901,06
557,45	835,53
557,65	755,65
557,86	726,98
558,06	821,19
558,27	796,61
558,47	747,46
558,67	845,77
558,88	798,66
559,08	782,28
559,29	759,75
559,49	862,15
559,70	751,56
559,90	813,00
560,11	745,42
560,31	747,46
560,52	757,70
560,72	724,94
560,92	831,43
561,13	827,33
561,33	780,23
561,54	804,81
561,74	815,05
561,95	655,30
562,15	802,76
562,35	659,40
562,56	735,18
562,76	647,11
562,97	815,05
563,17	757,70
563,38	858,05
563,58	813,00
563,78	782,28
563,99	761,80
564,19	681,93
564,40	749,51
564,60	772,04
564,80	776,13
565,01	735,18
565,21	831,43
565,42	909,25
565,62	759,75
565,83	741,32
566,03	808,90
566,23	800,71
566,44	868,29
566,64	776,13
566,85	782,28
567,05	761,80
567,25	749,51
567,46	853,96
567,66	720,84
567,86	825,29
568,07	655,30
568,27	735,18
568,48	657,35
568,68	759,75
568,88	774,09
569,09	788,42
569,29	755,65
569,50	743,37
569,70	831,43
569,90	882,63
570,11	751,56
570,31	724,94
570,51	923,59
570,72	841,67
570,92	819,14
571,13	827,33
571,33	700,36
571,53	866,25
571,74	810,95
571,94	769,99
572,14	671,69
572,35	661,45
572,55	798,66
572,75	696,26
572,96	825,29
573,16	874,44
573,36	798,66
573,57	769,99
573,77	813,00
573,97	790,47
574,18	692,17
574,38	755,65
574,59	806,85
574,79	753,61
574,99	829,38
575,20	823,24
575,40	661,45
575,60	819,14
575,81	765,89
576,01	720,84
576,21	710,60
576,42	743,37
576,62	788,42
576,82	679,88
577,02	774,09
577,23	712,65
577,43	821,19
577,63	757,70
577,84	616,39
578,04	796,61
578,24	614,35
578,45	688,07
578,65	702,41
578,85	681,93
579,06	733,13
579,26	825,29
579,46	716,74
579,67	794,57
579,87	821,19
580,07	839,62
580,27	739,27
580,48	776,13
580,68	802,76
580,88	831,43
581,09	690,12
581,29	792,52
581,49	800,71
581,69	778,18
581,90	708,55
582,10	600,01
582,30	708,55
582,51	745,42
582,71	749,51
582,91	698,31
583,11	720,84
583,32	794,57
583,52	577,48
583,72	790,47
583,93	790,47
584,13	776,13
584,33	714,70
584,53	810,95
584,74	751,56
584,94	716,74
585,14	700,36
585,34	708,55
585,55	608,20
585,75	733,13
585,95	626,63
586,15	669,64
586,36	772,04
586,56	821,19
586,76	741,32
586,96	655,30
587,17	792,52
587,37	765,89
587,57	659,40
587,77	661,45
587,98	726,98
588,18	757,70
588,38	673,74
588,58	718,79
588,79	753,61
588,99	608,20
589,19	784,33
589,39	769,99
589,60	622,54
589,80	622,54
590,00	745,42
590,20	735,18
590,40	706,50
590,61	747,46
590,81	716,74
591,01	679,88
591,21	829,38
591,42	679,88
591,62	643,02
591,82	610,25
592,02	804,81
592,22	759,75
592,43	657,35
592,63	710,60
592,83	778,18
593,03	765,89
593,23	708,55
593,44	700,36
593,64	677,83
593,84	692,17
594,04	675,78
594,24	683,98
594,45	757,70
594,65	655,30
594,85	712,65
595,05	575,43
595,25	675,78
595,46	706,50
595,66	763,85
595,86	638,92
596,06	593,87
596,26	667,59
596,46	647,11
596,67	704,46
596,87	597,96
597,07	651,21
597,27	675,78
597,47	628,68
597,67	749,51
597,88	657,35
598,08	686,02
598,28	704,46
598,48	716,74
598,68	655,30
598,88	712,65
599,09	761,80
599,29	554,95
599,49	638,92
599,69	612,30
599,89	593,87
600,09	661,45
600,30	694,22
600,50	774,09
600,70	647,11
600,90	653,26
601,10	704,46
601,30	737,22
601,50	593,87
601,71	755,65
601,91	667,59
602,11	647,11
602,31	634,82
602,51	567,24
602,71	571,34
602,91	579,53
603,11	651,21
603,32	679,88
603,52	653,26
603,72	745,42
603,92	647,11
604,12	597,96
604,32	655,30
604,52	651,21
604,72	765,89
604,93	616,39
605,13	753,61
605,33	669,64
605,53	659,40
605,73	636,87
605,93	755,65
606,13	649,16
606,33	608,20
606,53	659,40
606,74	716,74
606,94	671,69
607,14	710,60
607,34	554,95
607,54	575,43
607,74	618,44
607,94	501,71
608,14	708,55
608,34	675,78
608,54	667,59
608,74	638,92
608,95	608,20
609,15	739,27
609,35	610,25
609,55	616,39
609,75	581,58
609,95	759,75
610,15	604,11
610,35	563,15
610,55	659,40
610,75	597,96
610,95	634,82
611,15	595,91
611,35	724,94
611,55	710,60
611,76	722,89
611,96	626,63
612,16	720,84
612,36	665,54
612,56	755,65
612,76	724,94
612,96	677,83
613,16	671,69
613,36	675,78
613,56	587,72
613,76	651,21
613,96	616,39
614,16	526,28
614,36	626,63
614,56	618,44
614,76	669,64
614,96	667,59
615,16	638,92
615,36	577,48
615,56	647,11
615,76	647,11
615,97	579,53
616,17	602,06
616,37	708,55
616,57	663,50
616,77	720,84
616,97	636,87
617,17	534,47
617,37	749,51
617,57	640,97
617,77	618,44
617,97	710,60
618,17	595,91
618,37	700,36
618,57	681,93
618,77	595,91
618,97	638,92
619,17	720,84
619,37	690,12
619,57	608,20
619,77	557,00
619,97	686,02
620,17	706,50
620,37	610,25
620,57	600,01
620,77	706,50
620,97	624,58
621,17	571,34
621,37	585,67
621,57	626,63
621,77	583,63
621,97	659,40
622,17	536,52
622,37	571,34
622,57	696,26
622,77	645,06
622,97	659,40
623,17	520,14
623,37	681,93
623,57	729,03
623,77	606,15
623,97	657,35
624,16	546,76
624,36	557,00
624,56	436,17
624,76	710,60
624,96	640,97
625,16	645,06
625,36	640,97
625,56	550,86
625,76	575,43
625,96	589,77
626,16	683,98
626,36	577,48
626,56	765,89
626,76	659,40
626,96	552,91
627,16	743,37
627,36	530,38
627,56	669,64
627,76	645,06
627,96	499,66
628,16	681,93
628,35	665,54
628,55	552,91
628,75	608,20
628,95	628,68
629,15	659,40
629,35	544,71
629,55	536,52
629,75	665,54
629,95	700,36
630,15	608,20
630,35	679,88
630,55	630,73
630,75	589,77
630,95	688,07
631,14	604,11
631,34	593,87
631,54	608,20
631,74	669,64
631,94	540,62
632,14	554,95
632,34	593,87
632,54	622,54
632,74	620,49
632,94	583,63
633,14	563,15
633,33	552,91
633,53	554,95
633,73	694,22
633,93	681,93
634,13	546,76
634,33	614,35
634,53	552,91
634,73	571,34
634,93	442,32
635,12	522,19
635,32	597,96
635,52	602,06
635,72	563,15
635,92	524,23
636,12	649,16
636,32	589,77
636,52	581,58
636,71	536,52
636,91	583,63
637,11	632,78
637,31	526,28
637,51	626,63
637,71	694,22
637,91	602,06
638,11	638,92
638,30	548,81
638,50	608,20
638,70	761,80
638,90	597,96
639,10	579,53
639,30	593,87
639,50	634,82
639,69	544,71
639,89	581,58
640,09	622,54
640,29	579,53
640,49	583,63
640,69	481,23
640,88	554,95
641,08	477,13
641,28	610,25
641,48	591,82
641,68	600,01
641,88	661,45
642,07	561,10
642,27	536,52
642,47	589,77
642,67	600,01
642,87	589,77
643,07	622,54
643,26	534,47
643,46	595,91
643,66	538,57
643,86	610,25
644,06	493,51
644,26	618,44
644,45	505,80
644,65	491,47
644,85	581,58
645,05	595,91
645,25	632,78
645,44	634,82
645,64	536,52
645,84	493,51
646,04	534,47
646,24	536,52
646,43	698,31
646,63	681,93
646,83	554,95
647,03	577,48
647,23	434,12
647,42	552,91
647,62	597,96
647,82	534,47
648,02	509,90
648,22	651,21
648,41	495,56
648,61	513,99
648,81	675,78
649,01	552,91
649,20	606,15
649,40	491,47
649,60	698,31
649,80	534,47
650,00	520,14
650,19	546,76
650,39	647,11
650,59	610,25
650,79	526,28
650,98	536,52
651,18	501,71
651,38	538,57
651,58	530,38
651,77	538,57
651,97	597,96
652,17	444,36
652,37	593,87
652,56	464,84
652,76	563,15
652,96	587,72
653,16	473,04
653,35	421,84
653,55	448,46
653,75	505,80
653,95	552,91
654,14	499,66
654,34	485,32
654,54	511,95
654,74	546,76
654,93	505,80
655,13	522,19
655,33	389,07
655,52	591,82
655,72	575,43
655,92	470,99
656,12	499,66
656,31	636,87
656,51	526,28
656,71	481,23
656,91	567,24
657,10	452,56
657,30	503,75
657,50	520,14
657,69	579,53
657,89	475,08
658,09	593,87
658,29	624,58
658,48	481,23
658,68	536,52
658,88	546,76
659,07	516,04
659,27	563,15
659,47	489,42
659,66	511,95
659,86	470,99
660,06	528,33
660,26	513,99
660,45	524,23
660,65	649,16
660,85	483,28
661,04	550,86
661,24	585,67
661,44	430,03
661,63	493,51
661,83	536,52
662,03	538,57
662,22	499,66
662,42	518,09
662,62	518,09
662,81	483,28
663,01	432,08
663,21	479,18
663,40	466,89
663,60	624,58
663,80	479,18
663,99	647,11
664,19	458,70
664,39	526,28
664,58	532,43
664,78	487,37
664,98	448,46
665,17	446,41
665,37	473,04
665,57	587,72
665,76	503,75
665,96	407,50
666,16	505,80
666,35	546,76
666,55	526,28
666,74	511,95
666,94	640,97
667,14	501,71
667,33	542,67
667,53	462,80
667,73	477,13
667,92	552,91
668,12	505,80
668,32	522,19
668,51	532,43
668,71	536,52
668,90	438,22
669,10	487,37
669,30	458,70
669,49	468,94
669,69	552,91
669,89	376,78
670,08	468,94
670,28	808,90
670,47	434,12
670,67	509,90
670,87	452,56
671,06	497,61
671,26	497,61
671,45	448,46
671,65	634,82
671,85	456,65
672,04	493,51
672,24	415,69
672,43	466,89
672,63	520,14
672,83	376,78
673,02	360,40
673,22	425,93
673,41	483,28
673,61	430,03
673,81	438,22
674,00	493,51
674,20	380,88
674,39	354,25
674,59	499,66
674,78	423,88
674,98	534,47
675,18	495,56
675,37	475,08
675,57	497,61
675,76	505,80
675,96	430,03
676,15	499,66
676,35	427,98
676,55	448,46
676,74	380,88
676,94	481,23
677,13	413,64
677,33	534,47
677,52	450,51
677,72	380,88
677,91	382,92
678,11	473,04
678,31	360,40
678,50	466,89
678,70	352,21
678,89	477,13
679,09	491,47
679,28	489,42
679,48	491,47
679,67	460,75
679,87	442,32
680,06	677,83
680,26	552,91
680,46	462,80
680,65	440,27
680,85	444,36
681,04	391,12
681,24	387,02
681,43	417,74
681,63	417,74
681,82	436,17
682,02	384,97
682,21	450,51
682,41	352,21
682,60	450,51
682,80	454,60
682,99	395,21
683,19	468,94
683,38	430,03
683,58	415,69
683,77	368,59
683,97	384,97
684,16	481,23
684,36	421,84
684,55	413,64
684,75	397,26
684,94	468,94
685,14	442,32
685,33	284,62
685,53	425,93
685,72	495,56
685,92	456,65
686,11	384,97
686,31	452,56
686,50	423,88
686,70	411,60
686,89	350,16
687,09	321,49
687,28	360,40
687,48	407,50
687,67	417,74
687,87	450,51
688,06	391,12
688,26	397,26
688,45	362,44
688,65	454,60
688,84	430,03
689,03	372,68
689,23	364,49
689,42	454,60
689,62	423,88
689,81	438,22
690,01	411,60
690,20	380,88
690,40	464,84
690,59	509,90
690,79	358,35
690,98	475,08
691,17	415,69
691,37	403,40
691,56	344,01
691,76	397,26
691,95	427,98
692,15	331,73
692,34	425,93
692,54	350,16
692,73	458,70
692,92	399,31
693,12	391,12
693,31	387,02
693,51	438,22
693,70	403,40
693,90	464,84
694,09	407,50
694,28	448,46
694,48	382,92
694,67	397,26
694,87	458,70
695,06	366,54
695,26	411,60
695,45	329,68
695,64	380,88
695,84	440,27
696,03	313,29
696,23	378,83
696,42	380,88
696,61	460,75
696,81	327,63
697,00	296,91
697,20	405,45
697,39	391,12
697,58	282,57
697,78	389,07
697,97	401,36
698,17	354,25
698,36	413,64
698,55	258,00
698,75	448,46
698,94	405,45
699,14	360,40
699,33	335,82
699,52	325,58
699,72	382,92
699,91	370,64
700,10	356,30
700,30	307,15
700,49	311,25
700,69	356,30
700,88	339,92
701,07	290,77
701,27	339,92
701,46	470,99
701,65	319,44
701,85	317,39
702,04	434,12
702,23	327,63
702,43	303,05
702,62	286,67
702,82	264,14
703,01	503,75
703,20	339,92
703,40	372,68
703,59	333,77
703,78	301,01
703,98	311,25
704,17	229,33
704,36	348,11
704,56	362,44
704,75	290,77
704,94	354,25
705,14	380,88
705,33	366,54
705,52	356,30
705,72	276,43
705,91	274,38
706,10	323,53
706,30	341,97
706,49	356,30
706,68	370,64
706,88	331,73
707,07	294,86
707,26	362,44
707,46	382,92
707,65	384,97
707,84	241,61
708,04	270,29
708,23	337,87
708,42	358,35
708,62	303,05
708,81	229,33
709,00	358,35
709,19	317,39
709,39	233,42
709,58	255,95
709,77	225,23
709,97	266,19
710,16	313,29
710,35	399,31
710,55	258,00
710,74	317,39
710,93	319,44
711,12	339,92
711,32	198,61
711,51	319,44
711,70	237,52
711,90	280,53
712,09	239,57
712,28	274,38
712,47	239,57
712,67	221,14
712,86	221,14
713,05	315,34
713,24	194,51
713,44	288,72
713,63	303,05
713,82	272,33
714,02	354,25
714,21	352,21
714,40	303,05
714,59	266,19
714,79	184,27
714,98	217,04
715,17	370,64
715,36	253,90
715,56	321,49
715,75	290,77
715,94	276,43
716,13	309,20
716,33	276,43
716,52	243,66
716,71	280,53
716,90	251,85
717,10	163,79
717,29	282,57
717,48	427,98
717,67	286,67
717,87	282,57
718,06	311,25
718,25	255,95
718,44	352,21
718,63	198,61
718,83	227,28
719,02	268,24
719,21	247,76
719,40	147,41
719,60	135,12
719,79	241,61
719,98	198,61
720,17	245,71
720,36	217,04
720,56	272,33
720,75	118,74
720,94	290,77
721,13	301,01
721,33	266,19
721,52	159,70
721,71	200,66
721,90	255,95
722,09	227,28
722,29	329,68
722,48	147,41
722,67	171,98
722,86	376,78
723,05	225,23
723,24	346,06
723,44	204,75
723,63	247,76
723,82	298,96
724,01	169,94
724,20	239,57
724,40	139,22
724,59	188,37
724,78	149,46
724,97	233,42
725,16	227,28
725,35	290,77
725,55	192,46
725,74	186,32
725,93	344,01
726,12	225,23
726,31	319,44
726,51	260,05
726,70	206,80
726,89	225,23
727,08	225,23
727,27	266,19
727,46	241,61
727,65	249,81
727,85	231,37
728,04	247,76
728,23	100,30
728,42	202,70
728,61	253,90
728,80	178,13
729,00	235,47
729,19	278,48
729,38	262,09
729,57	219,09
729,76	192,46
729,95	344,01
730,14	219,09
730,33	184,27
730,53	102,35
730,72	147,41
730,91	188,37
731,10	196,56
731,29	311,25
731,48	247,76
731,67	157,65
731,86	223,18
732,06	196,56
732,25	59,35
732,44	255,95
732,63	169,94
732,82	264,14
733,01	303,05
733,20	145,36
733,39	188,37
733,59	182,22
733,78	202,70
733,97	233,42
734,16	163,79
734,35	227,28
734,54	217,04
734,73	147,41
734,92	178,13
735,11	141,26
735,30	143,31
735,49	155,60
735,69	370,64
735,88	208,85
736,07	225,23
736,26	163,79
736,45	147,41
736,64	77,78
736,83	243,66
737,02	214,99
737,21	167,89
737,40	67,54
737,59	339,92
737,78	133,07
737,98	180,18
738,17	186,32
738,36	249,81
738,55	161,74
738,74	178,13
738,93	206,80
739,12	128,98
739,31	124,88
739,50	65,49
739,69	227,28
739,88	221,14
740,07	212,94
740,26	221,14
740,45	178,13
740,64	190,42
740,83	106,45
741,02	114,64
741,22	171,98
741,41	167,89
741,60	221,14
741,79	139,22
741,98	253,90
742,17	159,70
742,36	184,27
742,55	98,26
742,74	329,68
742,93	169,94
743,12	141,26
743,31	124,88
743,50	192,46
743,69	184,27
743,88	135,12
744,07	67,54
744,26	278,48
744,45	151,50
744,64	247,76
744,83	143,31
745,02	102,35
745,21	143,31
745,40	180,18
745,59	225,23
745,78	122,83
745,97	106,45
746,16	268,24
746,35	133,07
746,54	137,17
746,73	96,21
746,92	225,23
747,11	104,40
747,30	126,93
747,49	210,90
747,68	194,51
747,87	161,74
748,06	229,33
748,25	198,61
748,44	124,88
748,63	198,61
748,82	116,69
749,01	85,97
749,20	36,82
749,39	90,07
749,58	131,02
749,77	145,36
749,96	38,87
750,15	196,56
750,34	108,50
750,53	176,08
750,72	255,95
750,91	108,50
751,10	217,04
751,29	149,46
751,48	42,96
751,67	149,46
751,86	157,65
752,04	167,89
752,23	171,98
752,42	188,37
752,61	104,40
752,80	169,94
752,99	122,83
753,18	85,97
753,37	149,46
753,56	18,39
753,75	51,15
753,94	71,63
754,13	133,07
754,32	110,54
754,51	100,30
754,70	63,44
754,89	171,98
755,08	178,13
755,27	98,26
755,45	143,31
755,64	143,31
755,83	184,27
756,02	223,18
756,21	118,74
756,40	155,60
756,59	77,78
756,78	88,02
756,97	81,87
757,16	139,22
757,35	174,03
757,54	114,64
757,72	174,03
757,91	122,83
758,10	161,74
758,29	53,20
758,48	137,17
758,67	83,92
758,86	55,25
759,05	71,63
759,24	145,36
759,43	73,68
759,61	14,29
759,80	57,30
759,99	63,44
760,18	122,83
760,37	96,21
760,56	32,72
760,75	157,65
760,94	143,31
761,13	159,70
761,31	182,22
761,50	63,44
761,69	96,21
761,88	106,45
762,07	24,53
762,26	90,07
762,45	171,98
762,64	151,50
762,82	28,63
763,01	208,85
763,20	126,93
763,39	139,22
763,58	81,87
763,77	102,35
763,96	47,06
764,14	165,84
764,33	126,93
764,52	83,92
764,71	204,75
764,90	143,31
765,09	57,30
765,27	102,35
765,46	81,87
765,65	85,97
765,84	47,06
766,03	151,50
766,22	94,16
766,41	106,45
766,59	57,30
766,78	133,07
766,97	57,30
767,16	75,73
767,35	141,26
767,54	251,85
767,72	153,55
767,91	167,89
768,10	22,48
768,29	108,50
768,48	143,31
768,66	155,60
768,85	167,89
769,04	49,11
769,23	75,73
769,42	98,26
769,61	114,64
769,79	137,17
769,98	214,99
770,17	71,63
770,36	208,85
770,55	28,63
770,73	184,27
770,92	186,32
771,11	135,12
771,30	63,44
771,49	128,98
771,67	198,61
771,86	81,87
772,05	120,78
772,24	102,35
772,42	53,20
772,61	147,41
772,80	61,39
772,99	69,59
773,18	155,60
773,36	34,77
773,55	36,82
773,74	124,88
773,93	96,21
774,11	24,53
774,30	192,46
774,49	75,73
774,68	100,30
774,87	139,22
775,05	24,53
775,24	22,48
775,43	147,41
775,62	90,07
775,80	141,26
775,99	116,69
776,18	212,94
776,37	28,63
776,55	126,93
776,74	161,74
776,93	114,64
777,12	153,55
777,30	143,31
777,49	96,21
777,68	155,60
777,87	90,07
778,05	73,68
778,24	145,36
778,43	81,87
778,62	51,15
778,80	65,49
778,99	202,70
779,18	108,50
779,36	153,55
779,55	75,73
779,74	163,79
779,93	71,63
780,11	83,92
780,30	124,88
780,49	165,84
780,68	100,30
780,86	192,46
781,05	90,07
781,24	112,59
781,42	122,83
781,61	118,74
781,80	12,24
781,98	104,40
782,17	110,54
782,36	112,59
782,55	104,40
782,73	73,68
782,92	284,62
783,11	10,19
783,29	79,83
783,48	79,83
783,67	153,55
783,85	184,27
784,04	120,78
784,23	49,11
784,42	139,22
784,60	178,13
784,79	223,18
784,98	104,40
785,16	137,17
785,35	79,83
785,54	165,84
785,72	241,61
785,91	131,02
786,10	38,87
786,28	137,17
786,47	169,94
786,66	49,11
786,84	120,78
787,03	153,55
787,22	143,31
787,40	28,63
787,59	188,37
787,78	120,78
787,96	49,11
788,15	100,30
788,34	88,02
788,52	55,25
788,71	108,50
788,89	182,22
789,08	18,39
789,27	188,37
789,45	110,54
789,64	83,92
789,83	67,54
790,01	55,25
790,20	159,70
790,39	110,54
790,57	79,83
790,76	47,06
790,95	30,67
791,13	100,30
791,32	92,11
791,50	196,56
791,69	65,49
791,88	151,50
792,06	157,65
792,25	167,89
792,43	96,21
792,62	171,98
792,81	38,87
792,99	-4,14
793,18	102,35
793,37	114,64
793,55	49,11
793,74	143,31
793,92	126,93
794,11	149,46
794,30	26,58
794,48	141,26
794,67	22,48
794,85	-12,33
795,04	49,11
795,23	81,87
795,41	69,59
795,60	79,83
795,78	106,45
795,97	171,98
796,15	167,89
796,34	106,45
796,53	40,91
796,71	88,02
796,90	186,32
797,08	94,16
797,27	180,18
797,46	88,02
797,64	-6,19
797,83	96,21
798,01	73,68
798,20	178,13
798,38	151,50
798,57	49,11
798,76	8,15
798,94	12,24
799,13	120,78
799,31	165,84
799,50	-30,77
799,68	22,48
799,87	22,48
800,05	135,12
800,24	81,87
800,43	51,15
800,61	212,94
800,80	196,56
800,98	36,82
801,17	98,26
801,35	-8,24
801,54	120,78
801,72	81,87
801,91	57,30
802,09	51,15
802,28	36,82
802,46	180,18
802,65	131,02
802,84	184,27
803,02	155,60
803,21	88,02
803,39	28,63
803,58	61,39
803,76	149,46
803,95	120,78
804,13	88,02
804,32	96,21
804,50	188,37
804,69	126,93
804,87	65,49
805,06	110,54
805,24	241,61
805,43	147,41
805,61	114,64
805,80	112,59
805,98	145,36
806,17	40,91
806,35	-28,72
806,54	90,07
806,72	65,49
806,91	42,96
807,09	110,54
807,28	153,55
807,46	100,30
807,65	159,70
807,83	94,16
808,02	65,49
808,20	128,98
808,39	49,11
808,57	61,39
808,76	106,45
808,94	69,59
809,13	61,39
809,31	20,43
809,49	106,45
809,68	30,67
809,86	100,30
810,05	81,87
810,23	116,69
810,42	190,42
810,60	53,20
810,79	73,68
810,97	63,44
811,16	36,82
811,34	94,16
811,53	40,91
811,71	77,78
811,89	102,35
812,08	126,93
812,26	2,00
812,45	100,30
812,63	53,20
812,82	53,20
813,00	36,82
813,19	65,49
813,37	120,78
813,55	32,72
813,74	53,20
813,92	221,14
814,11	-8,24
814,29	-34,86
814,48	155,60
814,66	190,42
814,84	79,83
815,03	34,77
815,21	112,59
815,40	139,22
815,58	79,83
815,77	135,12
815,95	67,54
816,13	10,19
816,32	200,66
816,50	212,94
816,69	55,25
816,87	38,87
817,05	67,54
817,24	153,55
817,42	69,59
817,61	-51,24
817,79	163,79
817,97	59,35
818,16	47,06
818,34	282,57
818,53	65,49
818,71	63,44
818,89	137,17
819,08	122,83
819,26	100,30
819,45	116,69
819,63	180,18
819,81	194,51
820,00	292,81
820,18	34,77
820,36	90,07
820,55	71,63
820,73	18,39
820,92	30,67
821,10	4,05
821,28	28,63
821,47	153,55
821,65	63,44
821,83	241,61
822,02	-12,33
822,20	120,78
822,39	69,59
822,57	-24,62
822,75	45,01
822,94	30,67
823,12	81,87
823,30	-0,05
823,49	196,56
823,67	55,25
823,85	83,92
824,04	-51,24
824,22	40,91
824,40	174,03
824,59	114,64
824,77	180,18
824,95	135,12
825,14	135,12
825,32	182,22
825,50	51,15
825,69	32,72
825,87	219,09
826,05	75,73
826,24	112,59
826,42	182,22
826,60	151,50
826,79	116,69
826,97	61,39
827,15	100,30
827,34	51,15
827,52	65,49
827,70	24,53
827,89	40,91
828,07	120,78
828,25	94,16
828,44	94,16
828,62	42,96
828,80	169,94
828,98	174,03
829,17	16,34
829,35	112,59
829,53	98,26
829,72	18,39
829,90	55,25
830,08	98,26
830,27	159,70
830,45	202,70
830,63	96,21
830,81	36,82
831,00	83,92
831,18	24,53
831,36	20,43
831,55	57,30
831,73	-6,19
831,91	53,20
832,09	171,98
832,28	159,70
832,46	38,87
832,64	112,59
832,82	-2,09
833,01	59,35
833,19	149,46
833,37	-2,09
833,55	49,11
833,74	131,02
833,92	12,24
834,10	110,54
834,29	98,26
834,47	38,87
834,65	122,83
834,83	42,96
835,02	20,43
835,20	42,96
835,38	88,02
835,56	100,30
835,75	133,07
835,93	126,93
836,11	14,29
836,29	51,15
836,47	90,07
836,66	26,58
836,84	120,78
837,02	85,97
837,20	98,26
837,39	151,50
837,57	102,35
837,75	18,39
837,93	49,11
838,12	63,44
838,30	81,87
838,48	55,25
838,66	104,40
838,84	73,68
839,03	159,70
839,21	75,73
839,39	14,29
839,57	212,94
839,75	88,02
839,94	92,11
840,12	22,48
840,30	51,15
840,48	102,35
840,66	100,30
840,85	12,24
841,03	73,68
841,21	114,64
841,39	135,12
841,57	71,63
841,76	108,50
841,94	171,98
842,12	2,00
842,30	104,40
842,48	155,60
842,67	53,20
842,85	67,54
843,03	71,63
843,21	165,84
843,39	180,18
843,57	45,01
843,76	108,50
843,94	14,29
844,12	63,44
844,30	-61,48
844,48	14,29
844,66	165,84
844,85	8,15
845,03	100,30
845,21	26,58
845,39	85,97
845,57	42,96
845,75	63,44
845,94	120,78
846,12	49,11
846,30	151,50
846,48	28,63
846,66	143,31
846,84	-30,77
847,02	94,16
847,21	20,43
847,39	77,78
847,57	55,25
847,75	51,15
847,93	-2,09
848,11	-0,05
848,29	20,43
848,48	75,73
848,66	10,19
848,84	167,89
849,02	124,88
849,20	45,01
849,38	157,65
849,56	57,30
849,74	61,39
849,93	153,55
850,11	36,82
850,29	100,30
850,47	49,11
850,65	4,05
850,83	30,67
851,01	12,24
851,19	131,02
851,37	20,43
851,56	-22,57
851,74	77,78
851,92	40,91
852,10	88,02
852,28	77,78
852,46	47,06
852,64	92,11
852,82	139,22
853,00	83,92
853,18	102,35
853,37	124,88
853,55	102,35
853,73	61,39
853,91	94,16
854,09	63,44
854,27	112,59
854,45	145,36
854,63	51,15
854,81	96,21
854,99	75,73
855,17	8,15
855,35	8,15
855,53	14,29
855,72	57,30
855,90	100,30
856,08	141,26
856,26	59,35
856,44	247,76
856,62	20,43
856,80	49,11
856,98	100,30
857,16	77,78
857,34	-24,62
857,52	139,22
857,70	184,27
857,88	83,92
858,06	102,35
858,24	155,60
858,42	145,36
858,60	67,54
858,78	28,63
858,96	69,59
859,15	-2,09
859,33	169,94
859,51	83,92
859,69	30,67
859,87	102,35
860,05	114,64
860,23	108,50
860,41	67,54
860,59	108,50
860,77	116,69
860,95	81,87
861,13	71,63
861,31	108,50
861,49	55,25
861,67	126,93
861,85	92,11
862,03	96,21
862,21	6,10
862,39	139,22
862,57	194,51
862,75	26,58
862,93	-10,29
863,11	171,98
863,29	-6,19
863,47	96,21
863,65	122,83
863,83	-69,68
864,01	-10,29
864,19	-45,10
864,37	45,01
864,55	63,44
864,73	67,54
864,91	108,50
865,09	71,63
865,27	69,59
865,45	55,25
865,63	155,60
865,81	73,68
865,99	71,63
866,17	77,78
866,35	169,94
866,53	135,12
866,71	-47,15
866,89	108,50
867,07	26,58
867,24	108,50
867,42	67,54
867,60	126,93
867,78	100,30
867,96	63,44
868,14	167,89
868,32	165,84
868,50	149,46
868,68	-0,05
868,86	71,63
869,04	137,17
869,22	124,88
869,40	4,05
869,58	59,35
869,76	67,54
869,94	18,39
870,12	47,06
870,30	135,12
870,48	104,40
870,66	53,20
870,83	73,68
871,01	53,20
871,19	-28,72
871,37	83,92
871,55	-24,62
871,73	92,11
871,91	81,87
872,09	106,45
872,27	63,44
872,45	-20,53
872,63	40,91
872,81	47,06
872,98	81,87
873,16	128,98
873,34	147,41
873,52	114,64
873,70	102,35
873,88	45,01
874,06	-47,15
874,24	112,59
874,42	55,25
874,60	-32,81
874,78	-4,14
874,95	63,44
875,13	65,49
875,31	65,49
875,49	96,21
875,67	81,87
875,85	100,30
876,03	36,82
876,21	92,11
876,39	40,91
876,56	120,78
876,74	-73,77
876,92	32,72
877,10	98,26
877,28	38,87
877,46	20,43
877,64	143,31
877,82	81,87
877,99	133,07
878,17	110,54
878,35	120,78
878,53	45,01
878,71	153,55
878,89	51,15
879,07	126,93
879,24	100,30
879,42	176,08
879,60	90,07
879,78	112,59
879,96	12,24
880,14	178,13
880,32	-28,72
880,49	90,07
880,67	112,59
880,85	49,11
881,03	-2,09
881,21	126,93
881,39	81,87
881,56	81,87
881,74	51,15
881,92	85,97
882,10	71,63
882,28	32,72
882,46	159,70
882,63	18,39
882,81	-36,91
882,99	53,20
883,17	81,87
883,35	151,50
883,52	94,16
883,70	102,35
883,88	83,92
884,06	106,45
884,24	100,30
884,42	131,02
884,59	69,59
884,77	63,44
884,95	114,64
885,13	110,54
885,31	104,40
885,48	51,15
885,66	124,88
885,84	98,26
886,02	98,26
886,20	112,59
886,37	75,73
886,55	163,79
886,73	128,98
886,91	55,25
887,08	47,06
887,26	151,50
887,44	24,53
887,62	12,24
887,80	135,12
887,97	65,49
888,15	102,35
888,33	88,02
888,51	135,12
888,68	69,59
888,86	100,30
889,04	18,39
889,22	171,98
889,40	8,15
889,57	22,48
889,75	178,13
889,93	45,01
890,11	90,07
890,28	42,96
890,46	104,40
890,64	90,07
890,82	149,46
890,99	88,02
891,17	75,73
891,35	57,30
891,53	94,16
891,70	-67,63
891,88	137,17
892,06	53,20
892,24	45,01
892,41	26,58
892,59	26,58
892,77	8,15
892,94	53,20
893,12	-20,53
893,30	2,00
893,48	79,83
893,65	188,37
893,83	100,30
894,01	67,54
894,19	53,20
894,36	163,79
894,54	47,06
894,72	145,36
894,89	-34,86
895,07	75,73
895,25	40,91
895,43	45,01
895,60	45,01
895,78	120,78
895,96	12,24
896,13	77,78
896,31	137,17
896,49	104,40
896,66	42,96
896,84	94,16
897,02	49,11
897,20	61,39
897,37	57,30
897,55	-30,77
897,73	161,74
897,90	122,83
898,08	135,12
898,26	77,78
898,43	85,97
898,61	139,22
898,79	-0,05
898,96	14,29
899,14	18,39
899,32	57,30
899,49	79,83
899,67	110,54
899,85	184,27
900,02	178,13
900,20	77,78
900,38	47,06
900,55	204,75
900,73	161,74
900,91	12,24
901,08	145,36
901,26	73,68
901,44	104,40
901,61	104,40
901,79	94,16
901,97	20,43
902,14	104,40
902,32	114,64
902,50	45,01
902,67	28,63
902,85	135,12
903,02	57,30
903,20	32,72
903,38	61,39
903,55	18,39
903,73	53,20
903,91	83,92
904,08	149,46
904,26	34,77
904,44	167,89
904,61	45,01
904,79	96,21
904,96	81,87
905,14	36,82
905,32	104,40
905,49	81,87
905,67	-18,48
905,84	2,00
906,02	75,73
906,20	32,72
906,37	196,56
906,55	69,59
906,73	73,68
906,90	137,17
907,08	36,82
907,25	94,16
907,43	196,56
907,61	2,00
907,78	94,16
907,96	18,39
908,13	112,59
908,31	171,98
908,48	-10,29
908,66	94,16
908,84	71,63
909,01	155,60
909,19	112,59
909,36	-26,67
909,54	98,26
909,72	69,59
909,89	2,00
910,07	2,00
910,24	151,50
910,42	206,80
910,59	24,53
910,77	6,10
910,95	22,48
911,12	88,02
911,30	38,87
911,47	34,77
911,65	94,16
911,82	-2,09
912,00	186,32
912,17	98,26
912,35	85,97
912,53	110,54
912,70	75,73
912,88	75,73
913,05	85,97
913,23	-8,24
913,40	85,97
913,58	10,19
913,75	77,78
913,93	-63,53
914,10	-4,14
914,28	14,29
914,46	-57,39
914,63	71,63
914,81	188,37
914,98	71,63
915,16	47,06
915,33	45,01
915,51	133,07
915,68	75,73
915,86	69,59
916,03	-2,09
916,21	24,53
916,38	137,17
916,56	-77,87
916,73	94,16
916,91	110,54
917,08	40,91
917,26	174,03
917,43	77,78
917,61	10,19
917,78	141,26
917,96	20,43
918,13	100,30
918,31	55,25
918,48	38,87
918,66	-24,62
918,83	157,65
919,01	55,25
919,18	65,49
919,36	47,06
919,53	169,94
919,71	214,99
919,88	122,83
920,06	94,16
920,23	61,39
920,41	102,35
920,58	28,63
920,76	-18,48
920,93	57,30
921,11	116,69
921,28	-16,43
921,45	204,75
921,63	128,98
921,80	88,02
921,98	114,64
922,15	75,73
922,33	34,77
922,50	85,97
922,68	65,49
922,85	-79,92
923,03	83,92
923,20	155,60
923,38	49,11
923,55	59,35
923,72	22,48
923,90	284,62
924,07	20,43
924,25	22,48
924,42	262,09
924,60	-14,38
924,77	6,10
924,95	85,97
925,12	114,64
925,29	212,94
925,47	75,73
925,64	-24,62
925,82	30,67
925,99	42,96
926,17	55,25
926,34	-0,05
926,51	49,11
926,69	128,98
926,86	100,30
927,04	110,54
927,21	122,83
927,38	-6,19
927,56	22,48
927,73	85,97
927,91	24,53
928,08	251,85
928,25	85,97
928,43	47,06
928,60	73,68
928,78	71,63
928,95	32,72
929,12	104,40
929,30	22,48
929,47	67,54
929,65	12,24
929,82	-34,86
929,99	77,78
930,17	20,43
930,34	75,73
930,52	83,92
930,69	67,54
930,86	63,44
931,04	12,24
931,21	-2,09
931,38	114,64
931,56	85,97
931,73	188,37
931,91	106,45
932,08	75,73
932,25	186,32
932,43	59,35
932,60	-14,38
932,77	94,16
932,95	26,58
933,12	106,45
933,29	65,49
933,47	153,55
933,64	81,87
933,82	-34,86
933,99	92,11
934,16	6,10
934,34	122,83
934,51	96,21
934,68	59,35
934,86	176,08
935,03	8,15
935,20	34,77
935,38	-8,24
935,55	100,30
935,72	47,06
935,90	53,20
936,07	75,73
936,24	53,20
936,42	135,12
936,59	38,87
936,76	159,70
936,94	47,06
937,11	165,84
937,28	153,55
937,46	85,97
937,63	77,78
937,80	88,02
937,97	128,98
938,15	57,30
938,32	4,05
938,49	149,46
938,67	22,48
938,84	196,56
939,01	110,54
939,19	159,70
939,36	151,50
939,53	116,69
939,70	141,26
939,88	81,87
940,05	188,37
940,22	65,49
940,40	133,07
940,57	49,11
940,74	67,54
940,92	32,72
941,09	90,07
941,26	24,53
941,43	98,26
941,61	65,49
941,78	16,34
941,95	124,88
942,12	36,82
942,30	71,63
942,47	149,46
942,64	57,30
942,82	149,46
942,99	149,46
943,16	-24,62
943,33	63,44
943,51	-12,33
943,68	71,63
943,85	104,40
944,02	65,49
944,20	147,41
944,37	-20,53
944,54	24,53
944,71	120,78
944,89	57,30
945,06	30,67
945,23	67,54
945,40	118,74
945,58	94,16
945,75	47,06
945,92	251,85
946,09	112,59
946,27	110,54
946,44	-20,53
946,61	96,21
946,78	96,21
946,95	90,07
947,13	98,26
947,30	90,07
947,47	67,54
947,64	90,07
947,82	53,20
947,99	2,00
948,16	139,22
948,33	67,54
948,50	4,05
948,68	128,98
948,85	118,74
949,02	180,18
949,19	104,40
949,36	143,31
949,54	79,83
949,71	126,93
949,88	-12,33
950,05	26,58
950,22	75,73
950,40	147,41
950,57	-2,09
950,74	200,66
950,91	155,60
951,08	40,91
951,26	122,83
951,43	77,78
951,60	45,01
951,77	163,79
951,94	135,12
952,11	88,02
952,29	116,69
952,46	34,77
952,63	198,61
952,80	124,88
952,97	104,40
953,15	59,35
953,32	63,44
953,49	24,53
953,66	157,65
953,83	49,11
954,00	96,21
954,17	14,29
954,35	188,37
954,52	-96,30
954,69	85,97
954,86	90,07
955,03	65,49
955,20	59,35
955,38	90,07
955,55	149,46
955,72	75,73
955,89	-45,10
956,06	81,87
956,23	-10,29
956,40	116,69
956,58	12,24
956,75	57,30
956,92	30,67
957,09	-22,57
957,26	128,98
957,43	63,44
957,60	116,69
957,77	20,43
957,95	-0,05
958,12	81,87
958,29	163,79
958,46	214,99
958,63	34,77
958,80	147,41
958,97	155,60
959,14	67,54
959,31	118,74
959,49	10,19
959,66	81,87
959,83	18,39
960,00	32,72
960,17	94,16
960,34	131,02
960,51	47,06
960,68	14,29
960,85	145,36
961,02	47,06
961,20	90,07
961,37	59,35
961,54	157,65
961,71	85,97
961,88	73,68
962,05	45,01
962,22	198,61
962,39	149,46
962,56	94,16
962,73	57,30
962,90	79,83
963,07	90,07
963,24	55,25
963,42	67,54
963,59	161,74
963,76	104,40
963,93	223,18
964,10	133,07
964,27	94,16
964,44	96,21
964,61	145,36
964,78	79,83
964,95	55,25
965,12	65,49
965,29	155,60
965,46	73,68
965,63	141,26
965,80	153,55
965,97	-22,57
966,14	59,35
966,31	34,77
966,48	178,13
966,66	77,78
966,83	174,03
967,00	88,02
967,17	57,30
967,34	139,22
967,51	167,89
967,68	63,44
967,85	67,54
968,02	210,90
968,19	75,73
968,36	104,40
968,53	67,54
968,70	102,35
968,87	104,40
969,04	88,02
969,21	75,73
969,38	169,94
969,55	81,87
969,72	161,74
969,89	108,50
970,06	32,72
970,23	51,15
970,40	83,92
970,57	45,01
970,74	106,45
970,91	73,68
971,08	77,78
971,25	59,35
971,42	106,45
971,59	2,00
971,76	-86,06
971,93	85,97
972,10	-28,72
972,27	42,96
972,44	42,96
972,61	75,73
972,78	45,01
972,95	88,02
973,12	229,33
973,29	77,78
973,46	85,97
973,63	4,05
973,80	159,70
973,97	53,20
974,14	118,74
974,30	112,59
974,47	85,97
974,64	112,59
974,81	122,83
974,98	202,70
975,15	34,77
975,32	153,55
975,49	85,97
975,66	96,21
975,83	143,31
976,00	171,98
976,17	8,15
976,34	73,68
976,51	55,25
976,68	75,73
976,85	42,96
977,02	63,44
977,19	94,16
977,36	10,19
977,52	122,83
977,69	174,03
977,86	145,36
978,03	57,30
978,20	110,54
978,37	38,87
978,54	208,85
978,71	262,09
978,88	147,41
979,05	90,07
979,22	94,16
979,39	192,46
979,56	88,02
979,72	40,91
979,89	192,46
980,06	180,18
980,23	219,09
980,40	10,19
980,57	118,74
980,74	40,91
980,91	51,15
981,08	28,63
981,25	77,78
981,41	108,50
981,58	22,48
981,75	-32,81
981,92	139,22
982,09	94,16
982,26	26,58
982,43	16,34
982,60	155,60
982,77	79,83
982,93	83,92
983,10	-10,29
983,27	69,59
983,44	57,30
983,61	184,27
983,78	51,15
983,95	57,30
984,11	49,11
984,28	128,98
984,45	30,67
984,62	4,05
984,79	63,44
984,96	83,92
985,13	57,30
985,30	116,69
985,46	73,68
985,63	88,02
985,80	147,41
985,97	38,87
986,14	47,06
986,31	128,98
986,47	6,10
986,64	34,77
986,81	124,88
986,98	32,72
987,15	57,30
987,32	67,54
987,48	71,63
987,65	34,77
987,82	-36,91
987,99	108,50
988,16	397,26
988,33	247,76
988,49	96,21
988,66	135,12
988,83	71,63
989,00	141,26
989,17	-12,33
989,34	106,45
989,50	71,63
989,67	92,11
989,84	47,06
990,01	71,63
990,18	92,11
990,34	100,30
990,51	55,25
990,68	116,69
990,85	165,84
991,02	69,59
991,18	102,35
991,35	104,40
991,52	178,13
991,69	22,48
991,86	65,49
992,02	77,78
992,19	14,29
992,36	165,84
992,53	118,74
992,69	85,97
992,86	34,77
993,03	110,54
993,20	30,67
993,37	194,51
993,53	180,18
993,70	163,79
993,87	-32,81
994,04	63,44
994,20	34,77
994,37	71,63
994,54	32,72
994,71	75,73
994,87	112,59
995,04	128,98
995,21	79,83
995,38	6,10
995,55	57,30
995,71	96,21
995,88	137,17
996,05	45,01
996,22	155,60
996,38	88,02
996,55	47,06
996,72	71,63
996,88	319,44
997,05	1261,50
997,22	102,35
997,39	22,48
997,55	163,79
997,72	94,16
997,89	65,49
998,06	102,35
998,22	147,41
998,39	16,34
998,56	-30,77
998,73	57,30
998,89	106,45
999,06	45,01
999,23	88,02
999,39	92,11
999,56	165,84
999,73	90,07
999,90	-2,09
1000,06	133,07
1000,23	90,07
1000,40	71,63
1000,56	106,45
1000,73	88,02
1000,90	57,30
1001,06	85,97
1001,23	4,05
1001,40	161,74
1001,57	92,11
1001,73	-6,19
1001,90	28,63
1002,07	18,39
1002,23	169,94
1002,40	67,54
1002,57	12,24
1002,73	57,30
1002,90	85,97
1003,07	143,31
1003,23	6,10
1003,40	100,30
1003,57	-8,24
1003,73	69,59
1003,90	133,07
1004,07	47,06
1004,23	120,78
1004,40	92,11
1004,57	63,44
1004,73	-12,33
1004,90	71,63
1005,07	135,12
1005,23	92,11
1005,40	-8,24
1005,57	24,53
1005,73	94,16
1005,90	28,63
1006,07	131,02
1006,23	81,87
1006,40	38,87
1006,57	94,16
1006,73	71,63
1006,90	24,53
1007,06	75,73
1007,23	92,11
1007,40	32,72
1007,56	98,26
1007,73	120,78
1007,90	57,30
1008,06	102,35
1008,23	77,78
1008,40	122,83
1008,56	118,74
1008,73	67,54
1008,89	63,44
1009,06	212,94
1009,23	36,82
1009,39	141,26
1009,56	24,53
1009,72	32,72
1009,89	61,39
1010,06	116,69
1010,22	77,78
1010,39	32,72
1010,55	40,91
1010,72	90,07
1010,89	65,49
1011,05	98,26
1011,22	47,06
1011,38	36,82
1011,55	178,13
1011,72	26,58
1011,88	-0,05
1012,05	186,32
1012,21	96,21
1012,38	38,87
1012,55	212,94
1012,71	8,15
1012,88	90,07
1013,04	59,35
1013,21	28,63
1013,37	104,40
1013,54	57,30
1013,71	85,97
1013,87	90,07
1014,04	131,02
1014,20	149,46
1014,37	40,91
1014,53	38,87
1014,70	30,67
1014,87	57,30
1015,03	192,46
1015,20	-18,48
1015,36	57,30
1015,53	14,29
1015,69	114,64
1015,86	96,21
1016,02	122,83
1016,19	106,45
1016,36	94,16
1016,52	94,16
1016,69	98,26
1016,85	28,63
1017,02	102,35
1017,18	120,78
1017,35	81,87
1017,51	38,87
1017,68	145,36
1017,84	22,48
1018,01	-51,24
1018,17	69,59
1018,34	200,66
1018,50	18,39
1018,67	45,01
1018,84	188,37
1019,00	71,63
1019,17	61,39
1019,33	77,78
1019,50	169,94
1019,66	106,45
1019,83	6,10
1019,99	157,65
1020,16	14,29
1020,32	24,53
1020,49	104,40
1020,65	100,30
1020,82	88,02
1020,98	214,99
1021,15	12,24
1021,31	161,74
1021,48	110,54
1021,64	112,59
1021,81	169,94
1021,97	65,49
1022,14	157,65
1022,30	147,41
1022,47	96,21
1022,63	106,45
1022,79	133,07
1022,96	69,59
1023,12	55,25
1023,29	75,73
1023,45	204,75
1023,62	120,78
1023,78	110,54
1023,95	157,65
1024,11	77,78
1024,28	55,25
1024,44	106,45
1024,61	6,10
1024,77	106,45
1024,94	81,87
1025,10	42,96
1025,26	16,34
1025,43	79,83
1025,59	63,44
1025,76	32,72
1025,92	40,91
1026,09	-10,29
1026,25	171,98
1026,42	16,34
1026,58	34,77
1026,74	100,30
1026,91	88,02
1027,07	106,45
1027,24	141,26
1027,40	110,54
1027,57	155,60
1027,73	90,07
1027,90	180,18
1028,06	94,16
1028,22	69,59
1028,39	100,30
1028,55	128,98
1028,72	120,78
1028,88	227,28
1029,04	63,44
1029,21	147,41
1029,37	18,39
1029,54	106,45
1029,70	16,34
1029,87	45,01
1030,03	67,54
1030,19	143,31
1030,36	90,07
1030,52	45,01
1030,69	88,02
1030,85	20,43
1031,01	79,83
1031,18	110,54
1031,34	98,26
1031,50	2,00
1031,67	24,53
1031,83	161,74
1032,00	38,87
1032,16	104,40
1032,32	2,00
1032,49	149,46
1032,65	176,08
1032,82	163,79
1032,98	73,68
1033,14	24,53
1033,31	131,02
1033,47	268,24
1033,63	63,44
1033,80	151,50
1033,96	71,63
1034,13	161,74
1034,29	67,54
1034,45	77,78
1034,62	65,49
1034,78	118,74
1034,94	69,59
1035,11	67,54
1035,27	-24,62
1035,43	83,92
1035,60	122,83
1035,76	-16,43
1035,92	42,96
1036,09	20,43
1036,25	122,83
1036,41	153,55
1036,58	180,18
1036,74	167,89
1036,90	-20,53
1037,07	77,78
1037,23	42,96
1037,39	208,85
1037,56	75,73
1037,72	65,49
1037,88	98,26
1038,05	40,91
1038,21	163,79
1038,37	139,22
1038,54	112,59
1038,70	141,26
1038,86	85,97
1039,03	112,59
1039,19	110,54
1039,35	53,20
1039,52	114,64
1039,68	176,08
1039,84	-16,43
1040,00	126,93
1040,17	61,39
1040,33	81,87
1040,49	69,59
1040,66	38,87
1040,82	18,39
1040,98	98,26
1041,15	131,02
1041,31	131,02
1041,47	108,50
1041,63	-18,48
1041,80	83,92
1041,96	133,07
1042,12	-41,00
1042,29	118,74
1042,45	182,22
1042,61	-0,05
1042,77	155,60
1042,94	167,89
1043,10	245,71
1043,26	85,97
1043,42	94,16
1043,59	67,54
1043,75	157,65
1043,91	45,01
1044,07	51,15
1044,24	55,25
1044,40	120,78
>>>>>End Processed Spectral Data<<<<<
