SpectraSuite Data File
++++++++++++++++++++++++++++++++++++
Date: Mon Nov 09 12:16:10 BRST 2020
User: Administrador
Dark Spectrum Present: No
Reference Spectrum Present: No
Number of Sampled Component Spectra: 1
Spectrometers: USB4F02573
Integration Time (usec): 100000 (USB4F02573)
Spectra Averaged: 1 (USB4F02573)
Boxcar Smoothing: 0 (USB4F02573)
Correct for Electrical Dark: Yes (USB4F02573)
Strobe/Lamp Enabled: No (USB4F02573)
Correct for Detector Non-linearity: No (USB4F02573)
Correct for Stray Light: No (USB4F02573)
Number of Pixels in Processed Spectrum: 3648
>>>>>Begin Processed Spectral Data<<<<<
345,22	-198,54
345,44	-198,54
345,66	-198,54
345,88	-151,44
346,10	-186,25
346,32	53,36
346,54	63,60
346,75	45,17
346,97	67,70
347,19	84,08
347,41	137,33
347,63	34,93
347,85	28,79
348,07	10,35
348,29	206,96
348,51	67,70
348,73	131,18
348,95	2,16
349,16	125,04
349,38	47,22
349,60	116,85
349,82	98,42
350,04	32,88
350,26	151,66
350,48	39,03
350,70	112,75
350,92	88,18
351,14	86,13
351,35	104,56
351,57	0,11
351,79	55,41
352,01	-22,41
352,23	61,55
352,45	67,70
352,67	71,79
352,89	92,27
353,10	47,22
353,32	94,32
353,54	53,36
353,76	135,28
353,98	67,70
354,20	98,42
354,42	168,05
354,64	79,98
354,85	149,62
355,07	112,75
355,29	120,94
355,51	6,26
355,73	12,40
355,95	69,74
356,17	71,79
356,38	63,60
356,60	22,64
356,82	92,27
357,04	79,98
357,26	24,69
357,48	145,52
357,69	137,33
357,91	55,41
358,13	112,75
358,35	159,86
358,57	102,51
358,79	135,28
359,01	118,90
359,22	166,00
359,44	122,99
359,66	141,42
359,88	6,26
360,10	92,27
360,32	43,12
360,53	57,46
360,75	45,17
360,97	112,75
361,19	67,70
361,41	137,33
361,62	77,94
361,84	98,42
362,06	61,55
362,28	10,35
362,50	145,52
362,72	67,70
362,93	100,46
363,15	-16,27
363,37	45,17
363,59	90,22
363,81	20,59
364,02	137,33
364,24	141,42
364,46	120,94
364,68	92,27
364,90	221,29
365,11	82,03
365,33	104,56
365,55	90,22
365,77	6,26
365,99	82,03
366,20	239,73
366,42	118,90
366,64	26,74
366,86	51,31
367,07	141,42
367,29	49,27
367,51	82,03
367,73	-32,65
367,95	98,42
368,16	77,94
368,38	155,76
368,60	129,14
368,82	114,80
369,03	108,66
369,25	194,67
369,47	14,45
369,69	22,64
369,91	110,70
370,12	69,74
370,34	51,31
370,56	57,46
370,78	106,61
370,99	161,90
371,21	112,75
371,43	32,88
371,65	-59,28
371,86	53,36
372,08	213,10
372,30	65,65
372,52	98,42
372,73	6,26
372,95	55,41
373,17	75,89
373,39	36,98
373,60	92,27
373,82	139,38
374,04	90,22
374,26	147,57
374,47	196,72
374,69	67,70
374,91	194,67
375,12	90,22
375,34	96,37
375,56	79,98
375,78	139,38
375,99	-30,61
376,21	184,43
376,43	133,23
376,65	143,47
376,86	106,61
377,08	59,50
377,30	127,09
377,51	59,50
377,73	77,94
377,95	57,46
378,17	24,69
378,38	84,08
378,60	59,50
378,82	172,14
379,03	122,99
379,25	147,57
379,47	161,90
379,68	-14,22
379,90	-14,22
380,12	209,01
380,34	22,64
380,55	90,22
380,77	114,80
380,99	77,94
381,20	120,94
381,42	59,50
381,64	88,18
381,85	12,40
382,07	112,75
382,29	92,27
382,50	182,38
382,72	84,08
382,94	51,31
383,15	75,89
383,37	120,94
383,59	39,03
383,80	32,88
384,02	127,09
384,24	168,05
384,45	79,98
384,67	135,28
384,89	-28,56
385,10	24,69
385,32	116,85
385,54	176,24
385,75	26,74
385,97	186,48
386,19	202,86
386,40	147,57
386,62	116,85
386,84	36,98
387,05	32,88
387,27	45,17
387,49	84,08
387,70	100,46
387,92	170,10
388,14	36,98
388,35	34,93
388,57	67,70
388,79	157,81
389,00	61,55
389,22	51,31
389,43	108,66
389,65	49,27
389,87	151,66
390,08	114,80
390,30	153,71
390,52	108,66
390,73	108,66
390,95	47,22
391,17	88,18
391,38	145,52
391,60	157,81
391,81	137,33
392,03	45,17
392,25	57,46
392,46	14,45
392,68	151,66
392,89	43,12
393,11	98,42
393,33	141,42
393,54	98,42
393,76	131,18
393,98	90,22
394,19	43,12
394,41	41,07
394,62	-30,61
394,84	61,55
395,06	63,60
395,27	59,50
395,49	8,31
395,70	98,42
395,92	82,03
396,13	20,59
396,35	155,76
396,57	139,38
396,78	47,22
397,00	88,18
397,21	206,96
397,43	153,71
397,65	104,56
397,86	137,33
398,08	79,98
398,29	96,37
398,51	-26,51
398,72	145,52
398,94	211,05
399,16	143,47
399,37	71,79
399,59	104,56
399,80	151,66
400,02	131,18
400,23	84,08
400,45	65,65
400,67	71,79
400,88	108,66
401,10	39,03
401,31	20,59
401,53	41,07
401,74	166,00
401,96	-3,98
402,17	32,88
402,39	100,46
402,61	45,17
402,82	22,64
403,04	114,80
403,25	57,46
403,47	125,04
403,68	12,40
403,90	127,09
404,11	96,37
404,33	34,93
404,54	100,46
404,76	28,79
404,97	88,18
405,19	196,72
405,41	125,04
405,62	92,27
405,84	28,79
406,05	137,33
406,27	-55,18
406,48	51,31
406,70	114,80
406,91	90,22
407,13	86,13
407,34	84,08
407,56	149,62
407,77	174,19
407,99	82,03
408,20	172,14
408,42	86,13
408,63	65,65
408,85	-12,17
409,06	77,94
409,28	213,10
409,49	71,79
409,71	67,70
409,92	217,20
410,14	110,70
410,35	245,87
410,57	135,28
410,78	63,60
411,00	39,03
411,21	163,95
411,43	168,05
411,64	39,03
411,86	61,55
412,07	92,27
412,29	106,61
412,50	102,51
412,72	190,57
412,93	155,76
413,15	120,94
413,36	161,90
413,58	192,62
413,79	104,56
414,01	194,67
414,22	172,14
414,43	223,34
414,65	92,27
414,86	92,27
415,08	118,90
415,29	131,18
415,51	88,18
415,72	135,28
415,94	73,84
416,15	122,99
416,37	141,42
416,58	8,31
416,80	-12,17
417,01	55,41
417,22	100,46
417,44	143,47
417,65	94,32
417,87	75,89
418,08	258,16
418,30	90,22
418,51	108,66
418,73	116,85
418,94	57,46
419,15	114,80
419,37	129,14
419,58	-18,32
419,80	47,22
420,01	151,66
420,23	90,22
420,44	135,28
420,65	88,18
420,87	141,42
421,08	84,08
421,30	190,57
421,51	30,83
421,73	59,50
421,94	57,46
422,15	100,46
422,37	104,56
422,58	20,59
422,80	49,27
423,01	43,12
423,22	-3,98
423,44	-1,93
423,65	63,60
423,87	110,70
424,08	98,42
424,29	43,12
424,51	49,27
424,72	100,46
424,94	125,04
425,15	67,70
425,36	129,14
425,58	137,33
425,79	176,24
426,01	180,34
426,22	102,51
426,43	239,73
426,65	65,65
426,86	55,41
427,08	153,71
427,29	26,74
427,50	65,65
427,72	6,26
427,93	104,56
428,14	22,64
428,36	112,75
428,57	82,03
428,79	143,47
429,00	170,10
429,21	108,66
429,43	86,13
429,64	116,85
429,85	67,70
430,07	75,89
430,28	92,27
430,49	16,50
430,71	32,88
430,92	104,56
431,14	108,66
431,35	94,32
431,56	209,01
431,78	127,09
431,99	112,75
432,20	133,23
432,42	32,88
432,63	102,51
432,84	63,60
433,06	59,50
433,27	106,61
433,48	155,76
433,70	73,84
433,91	186,48
434,12	-3,98
434,34	112,75
434,55	104,56
434,76	63,60
434,98	98,42
435,19	84,08
435,40	47,22
435,62	8,31
435,83	184,43
436,04	133,23
436,26	174,19
436,47	55,41
436,68	-32,65
436,90	65,65
437,11	129,14
437,32	71,79
437,54	104,56
437,75	69,74
437,96	114,80
438,17	118,90
438,39	108,66
438,60	163,95
438,81	110,70
439,03	155,76
439,24	53,36
439,45	204,91
439,67	34,93
439,88	186,48
440,09	88,18
440,30	108,66
440,52	-8,08
440,73	32,88
440,94	82,03
441,16	112,75
441,37	90,22
441,58	49,27
441,80	127,09
442,01	75,89
442,22	241,77
442,43	116,85
442,65	268,40
442,86	209,01
443,07	49,27
443,28	-38,80
443,50	90,22
443,71	145,52
443,92	110,70
444,14	49,27
444,35	176,24
444,56	67,70
444,77	53,36
444,99	129,14
445,20	63,60
445,41	73,84
445,62	36,98
445,84	94,32
446,05	141,42
446,26	194,67
446,47	209,01
446,69	102,51
446,90	100,46
447,11	215,15
447,32	32,88
447,54	102,51
447,75	100,46
447,96	102,51
448,17	127,09
448,39	96,37
448,60	14,45
448,81	82,03
449,02	125,04
449,23	120,94
449,45	131,18
449,66	88,18
449,87	98,42
450,08	106,61
450,30	88,18
450,51	82,03
450,72	137,33
450,93	65,65
451,15	125,04
451,36	55,41
451,57	163,95
451,78	98,42
451,99	67,70
452,21	120,94
452,42	69,74
452,63	122,99
452,84	135,28
453,05	39,03
453,27	8,31
453,48	258,16
453,69	53,36
453,90	252,01
454,11	43,12
454,33	49,27
454,54	120,94
454,75	79,98
454,96	112,75
455,17	108,66
455,39	86,13
455,60	8,31
455,81	145,52
456,02	22,64
456,23	135,28
456,45	159,86
456,66	147,57
456,87	90,22
457,08	149,62
457,29	188,53
457,50	84,08
457,72	116,85
457,93	133,23
458,14	157,81
458,35	102,51
458,56	186,48
458,77	43,12
458,99	49,27
459,20	86,13
459,41	65,65
459,62	133,23
459,83	100,46
460,04	22,64
460,26	139,38
460,47	51,31
460,68	77,94
460,89	125,04
461,10	118,90
461,31	122,99
461,52	63,60
461,74	241,77
461,95	67,70
462,16	82,03
462,37	198,77
462,58	122,99
462,79	79,98
463,00	104,56
463,22	180,34
463,43	118,90
463,64	137,33
463,85	141,42
464,06	94,32
464,27	174,19
464,48	88,18
464,70	112,75
464,91	114,80
465,12	47,22
465,33	151,66
465,54	213,10
465,75	153,71
465,96	174,19
466,17	147,57
466,38	139,38
466,60	90,22
466,81	116,85
467,02	196,72
467,23	137,33
467,44	168,05
467,65	100,46
467,86	206,96
468,07	106,61
468,28	219,25
468,50	24,69
468,71	227,44
468,92	129,14
469,13	108,66
469,34	122,99
469,55	63,60
469,76	57,46
469,97	209,01
470,18	108,66
470,39	174,19
470,60	53,36
470,82	159,86
471,03	108,66
471,24	151,66
471,45	153,71
471,66	90,22
471,87	79,98
472,08	166,00
472,29	155,76
472,50	96,37
472,71	75,89
472,92	161,90
473,13	127,09
473,34	143,47
473,55	65,65
473,77	153,71
473,98	151,66
474,19	100,46
474,40	53,36
474,61	79,98
474,82	16,50
475,03	92,27
475,24	20,59
475,45	141,42
475,66	141,42
475,87	39,03
476,08	131,18
476,29	166,00
476,50	133,23
476,71	237,68
476,92	73,84
477,13	151,66
477,34	71,79
477,55	120,94
477,76	149,62
477,97	131,18
478,18	-8,08
478,40	125,04
478,61	106,61
478,82	79,98
479,03	16,50
479,24	221,29
479,45	133,23
479,66	139,38
479,87	127,09
480,08	120,94
480,29	79,98
480,50	256,11
480,71	172,14
480,92	61,55
481,13	-16,27
481,34	135,28
481,55	22,64
481,76	120,94
481,97	110,70
482,18	143,47
482,39	53,36
482,60	155,76
482,81	94,32
483,02	204,91
483,23	196,72
483,44	149,62
483,65	125,04
483,86	147,57
484,07	151,66
484,28	145,52
484,49	153,71
484,70	137,33
484,91	55,41
485,12	108,66
485,33	14,45
485,54	143,47
485,75	63,60
485,96	86,13
486,17	20,59
486,38	71,79
486,59	118,90
486,80	190,57
487,01	90,22
487,21	112,75
487,42	26,74
487,63	215,15
487,84	65,65
488,05	39,03
488,26	344,17
488,47	133,23
488,68	-6,03
488,89	204,91
489,10	143,47
489,31	112,75
489,52	77,94
489,73	122,99
489,94	233,58
490,15	82,03
490,36	166,00
490,57	206,96
490,78	32,88
490,99	147,57
491,20	88,18
491,41	149,62
491,61	245,87
491,82	131,18
492,03	229,49
492,24	133,23
492,45	49,27
492,66	57,46
492,87	47,22
493,08	98,42
493,29	82,03
493,50	43,12
493,71	145,52
493,92	98,42
494,13	139,38
494,34	98,42
494,54	163,95
494,75	190,57
494,96	182,38
495,17	141,42
495,38	20,59
495,59	108,66
495,80	168,05
496,01	200,81
496,22	143,47
496,43	71,79
496,64	75,89
496,84	127,09
497,05	135,28
497,26	194,67
497,47	172,14
497,68	172,14
497,89	96,37
498,10	174,19
498,31	235,63
498,52	180,34
498,72	96,37
498,93	186,48
499,14	114,80
499,35	127,09
499,56	125,04
499,77	104,56
499,98	157,81
500,19	131,18
500,40	118,90
500,60	22,64
500,81	225,39
501,02	82,03
501,23	133,23
501,44	110,70
501,65	77,94
501,86	96,37
502,06	114,80
502,27	125,04
502,48	141,42
502,69	118,90
502,90	206,96
503,11	71,79
503,32	200,81
503,53	86,13
503,73	53,36
503,94	139,38
504,15	166,00
504,36	143,47
504,57	127,09
504,78	32,88
504,98	84,08
505,19	4,21
505,40	135,28
505,61	59,50
505,82	65,65
506,03	243,82
506,23	79,98
506,44	77,94
506,65	192,62
506,86	129,14
507,07	49,27
507,28	92,27
507,48	174,19
507,69	139,38
507,90	90,22
508,11	108,66
508,32	71,79
508,53	233,58
508,73	114,80
508,94	98,42
509,15	153,71
509,36	129,14
509,57	106,61
509,77	110,70
509,98	10,35
510,19	116,85
510,40	131,18
510,61	108,66
510,81	221,29
511,02	282,73
511,23	206,96
511,44	55,41
511,65	55,41
511,85	184,43
512,06	94,32
512,27	141,42
512,48	155,76
512,69	182,38
512,89	79,98
513,10	159,86
513,31	200,81
513,52	182,38
513,73	137,33
513,93	174,19
514,14	227,44
514,35	239,73
514,56	116,85
514,76	127,09
514,97	215,15
515,18	245,87
515,39	166,00
515,60	198,77
515,80	108,66
516,01	231,53
516,22	223,34
516,43	114,80
516,63	229,49
516,84	295,02
517,05	157,81
517,26	161,90
517,46	188,53
517,67	278,64
517,88	139,38
518,09	174,19
518,29	92,27
518,50	225,39
518,71	163,95
518,92	229,49
519,12	176,24
519,33	200,81
519,54	129,14
519,75	243,82
519,95	229,49
520,16	188,53
520,37	86,13
520,57	145,52
520,78	305,26
520,99	145,52
521,20	241,77
521,40	102,51
521,61	219,25
521,82	139,38
522,03	71,79
522,23	247,92
522,44	225,39
522,65	122,99
522,85	149,62
523,06	155,76
523,27	190,57
523,48	196,72
523,68	231,53
523,89	194,67
524,10	280,69
524,30	159,86
524,51	215,15
524,72	262,25
524,93	159,86
525,13	204,91
525,34	221,29
525,55	231,53
525,75	297,07
525,96	223,34
526,17	219,25
526,37	284,78
526,58	186,48
526,79	237,68
526,99	223,34
527,20	241,77
527,41	196,72
527,62	223,34
527,82	272,49
528,03	221,29
528,24	217,20
528,44	319,60
528,65	219,25
528,86	239,73
529,06	241,77
529,27	213,10
529,48	217,20
529,68	340,08
529,89	338,03
530,10	350,32
530,30	333,93
530,51	241,77
530,72	270,45
530,92	254,06
531,13	290,93
531,34	358,51
531,54	307,31
531,75	276,59
531,96	469,10
532,16	282,73
532,37	389,23
532,57	323,69
532,78	383,08
532,99	321,64
533,19	333,93
533,40	448,62
533,61	331,88
533,81	325,74
534,02	331,88
534,23	376,94
534,43	409,71
534,64	493,67
534,84	422,00
535,05	374,89
535,26	395,37
535,46	485,48
535,67	393,32
535,88	376,94
536,08	378,99
536,29	411,76
536,49	403,56
536,70	436,33
536,91	305,26
537,11	419,95
537,32	432,24
537,53	553,07
537,73	559,21
537,94	350,32
538,14	530,54
538,35	454,76
538,56	555,11
538,76	546,92
538,97	518,25
539,17	471,15
539,38	655,46
539,59	655,46
539,79	536,68
540,00	659,56
540,20	733,29
540,41	647,27
540,62	983,14
540,82	618,60
541,03	696,42
541,23	659,56
541,44	694,38
541,64	698,47
541,85	624,74
542,06	731,24
542,26	669,80
542,47	843,88
542,67	800,87
542,88	837,73
543,08	870,50
543,29	946,28
543,50	917,60
543,70	1009,76
543,91	940,13
544,11	850,02
544,32	1003,62
544,52	985,19
544,73	954,47
544,94	956,52
545,14	933,99
545,35	1007,71
545,55	1136,74
545,76	1130,59
545,96	1097,83
546,17	1155,17
546,37	1144,93
546,58	1251,42
546,78	1149,02
546,99	1296,48
547,20	1294,43
547,40	1310,81
547,61	1327,20
547,81	1183,84
548,02	1443,93
548,22	1534,04
548,43	1626,20
548,63	1484,89
548,84	1648,73
549,04	1534,04
549,25	1529,95
549,45	1597,53
549,66	1583,19
549,86	1706,07
550,07	1757,27
550,27	1798,23
550,48	1851,48
550,69	1853,53
550,89	2097,23
551,10	1994,84
551,30	2211,92
551,51	2029,65
551,71	2220,11
551,92	2271,31
552,12	2256,98
552,33	2299,98
552,53	2267,22
552,74	2244,69
552,94	2486,35
553,15	2508,88
553,35	2730,06
553,56	2701,38
553,76	2785,35
553,97	2863,17
554,17	2850,89
554,38	2926,66
554,58	3033,16
554,79	2891,85
554,99	3057,73
555,19	3188,80
555,40	3305,54
555,60	3477,56
555,81	3502,14
556,01	3586,11
556,22	3698,75
556,42	3758,14
556,63	3883,06
556,83	4063,28
557,04	4147,25
557,24	4233,27
557,45	4167,73
557,65	4257,84
557,86	4481,07
558,06	4544,56
558,27	4720,68
558,47	4775,98
558,67	5064,74
558,88	5052,45
559,08	5142,56
559,29	5353,50
559,49	5517,34
559,70	5611,55
559,90	5775,39
560,11	5918,74
560,31	6010,90
560,52	6299,67
560,72	6299,67
560,92	6537,23
561,13	6692,88
561,33	6858,76
561,54	7092,23
561,74	7186,44
561,95	7473,15
562,15	7741,44
562,35	7663,61
562,56	8083,45
562,76	8038,39
562,97	8462,32
563,17	8570,86
563,38	8896,49
563,58	8970,22
563,78	9531,36
563,99	9371,62
564,19	9770,97
564,40	10072,02
564,60	10366,93
564,80	10317,78
565,01	10721,23
565,21	11001,80
565,42	11464,64
565,62	11681,73
565,83	11773,89
566,03	12062,65
566,23	12355,51
566,44	12617,65
566,64	12982,19
566,85	13404,07
567,05	13707,17
567,25	13954,97
567,46	14460,82
567,66	14780,30
567,86	14862,22
568,07	15218,57
568,27	16021,37
568,48	16111,48
568,68	16725,87
568,88	17035,12
569,09	17416,04
569,29	17842,02
569,50	18143,07
569,70	18751,32
569,90	19056,46
570,11	19783,49
570,31	19799,88
570,51	20791,09
570,72	20940,59
570,92	21741,35
571,13	21909,28
571,33	22869,78
571,53	23035,67
571,74	23613,19
571,94	24540,92
572,14	24921,85
572,35	25632,49
572,55	26289,89
572,75	26842,84
572,96	27121,36
573,16	27672,27
573,36	28657,34
573,57	29365,94
573,77	30119,59
573,97	30770,84
574,18	31293,08
574,38	31856,27
574,59	32491,14
574,79	32896,64
574,99	34127,47
575,20	34616,93
575,40	35257,94
575,60	36232,78
575,81	36628,03
576,01	37375,54
576,21	38002,22
576,42	38893,09
576,62	39196,19
576,82	40033,81
577,02	41459,19
577,23	41676,28
577,43	42913,25
577,63	43277,79
577,84	43890,13
578,04	44219,86
578,24	45082,05
578,45	46042,55
578,65	46400,94
578,85	47084,96
579,06	47728,03
579,26	48735,63
579,46	49321,35
579,67	49563,01
579,87	50130,29
580,07	50939,24
580,27	51199,33
580,48	52295,00
580,68	52882,76
580,88	53069,13
581,09	53712,19
581,29	53812,54
581,49	54883,63
581,69	55209,26
581,90	55704,86
582,10	56020,25
582,30	56241,43
582,51	56786,19
582,71	57285,90
582,91	57924,86
583,11	58094,84
583,32	58471,67
583,52	58768,63
583,72	59055,34
583,93	59825,38
584,13	60116,19
584,33	60163,29
584,53	60413,14
584,74	60980,43
584,94	61291,72
585,14	61121,74
585,34	61799,62
585,55	61637,83
585,75	62209,21
585,95	62065,85
586,15	62153,92
586,36	63118,51
586,56	62444,73
586,76	62954,67
586,96	63040,69
587,17	63530,15
587,37	63524,01
587,57	63628,45
587,77	63976,61
587,98	64001,19
588,18	64001,19
588,38	64001,19
588,58	63630,50
588,79	64001,19
588,99	64001,19
589,19	64001,19
589,39	64001,19
589,60	64001,19
589,80	64001,19
590,00	64001,19
590,20	64001,19
590,40	64001,19
590,61	64001,19
590,81	64001,19
591,01	64001,19
591,21	64001,19
591,42	64001,19
591,62	64001,19
591,82	64001,19
592,02	64001,19
592,22	64001,19
592,43	64001,19
592,63	64001,19
592,83	64001,19
593,03	64001,19
593,23	64001,19
593,44	64001,19
593,64	64001,19
593,84	64001,19
594,04	63780,00
594,24	63620,26
594,45	63827,11
594,65	63397,03
594,85	63308,97
595,05	63450,28
595,25	63251,63
595,46	62813,36
595,66	62137,53
595,86	62688,44
596,06	62080,19
596,26	62020,80
596,46	61824,19
596,67	61275,34
596,87	61045,97
597,07	60843,22
597,27	60480,73
597,47	60789,97
597,67	59655,40
597,88	59565,28
598,08	60001,50
598,28	59090,16
598,48	58778,86
598,68	58137,85
598,88	58025,21
599,09	57799,94
599,29	57431,30
599,49	56642,83
599,69	56755,47
599,89	55940,38
600,09	55741,73
600,30	55354,66
600,50	55332,13
600,70	54605,10
600,90	54244,66
601,10	53589,31
601,30	53364,04
601,50	53636,42
601,71	52456,79
601,91	51807,58
602,11	51850,59
602,31	51336,55
602,51	50939,24
602,71	50310,51
602,91	50308,47
603,11	49962,36
603,32	49177,99
603,52	48678,28
603,72	48795,02
603,92	48782,73
604,12	47824,28
604,32	47256,99
604,52	47017,38
604,72	46785,96
604,93	46247,34
605,13	45835,70
605,33	45708,73
605,53	44932,55
605,73	44832,20
605,93	44453,32
606,13	43908,56
606,33	43220,45
606,53	42614,25
606,74	42694,12
606,94	42218,99
607,14	42229,23
607,34	41219,58
607,54	41078,27
607,74	40984,06
607,94	39734,80
608,14	40201,74
608,34	39382,55
608,54	39089,69
608,74	39077,41
608,95	38297,13
609,15	37977,65
609,35	37226,04
609,55	37416,50
609,75	36712,00
609,95	36654,66
610,15	36042,32
610,35	35847,76
610,55	35436,12
610,75	35006,04
610,95	34676,32
611,15	34350,69
611,35	33674,86
611,55	33801,84
611,76	33566,32
611,96	33138,30
612,16	32792,19
612,36	32349,83
612,56	32480,90
612,76	31614,61
612,96	31399,57
613,16	31170,20
613,36	30701,21
613,56	30494,37
613,76	30011,05
613,96	29763,24
614,16	29247,16
614,36	29294,26
614,56	28755,64
614,76	28360,39
614,96	28124,87
615,16	27813,58
615,36	27162,32
615,56	27139,80
615,76	27047,64
615,97	26914,52
616,17	26101,48
616,37	26210,02
616,57	25536,24
616,77	25415,41
616,97	25743,08
617,17	24895,22
617,37	24805,11
617,57	24135,43
617,77	24307,45
617,97	23820,04
618,17	23535,37
618,37	23281,42
618,57	23138,06
618,77	22232,86
618,97	22640,41
619,17	22073,12
619,37	22361,88
619,57	21677,86
619,77	21477,16
619,97	21595,94
620,17	21024,56
620,37	20991,79
620,57	20567,86
620,77	20182,85
620,97	20166,46
621,17	19947,33
621,37	19423,05
621,57	19457,86
621,77	19183,44
621,97	19060,56
622,17	18634,58
622,37	18659,16
622,57	18159,45
622,77	18327,39
622,97	17903,46
623,17	17739,62
623,37	17645,41
623,57	17463,14
623,77	17123,18
623,97	16910,19
624,16	16678,77
624,36	16603,00
624,56	16205,69
624,76	16170,88
624,96	16082,81
625,16	15763,33
625,36	15634,31
625,56	15783,81
625,76	15349,64
625,96	14917,52
626,16	14870,41
626,36	15030,16
626,56	14591,89
626,76	14489,49
626,96	14219,16
627,16	14182,30
627,36	14000,03
627,56	13666,21
627,76	13866,91
627,96	13254,57
628,16	13363,11
628,35	13158,31
628,55	12961,71
628,75	12941,23
628,95	12672,94
629,15	12740,53
629,35	12261,30
629,55	12412,85
629,75	12201,91
629,95	12060,60
630,15	11904,96
630,35	11792,32
630,55	11407,30
630,75	11278,28
630,95	11302,85
631,14	11261,89
631,34	11120,58
631,54	11001,80
631,74	10821,58
631,94	10829,77
632,14	10657,74
632,34	10252,25
632,54	10344,40
632,74	10145,75
632,94	10076,12
633,14	10276,82
633,33	10047,45
633,53	9535,46
633,73	9871,32
633,93	9797,60
634,13	9598,94
634,33	9304,04
634,53	9349,09
634,73	9265,12
634,93	8947,69
635,12	8939,50
635,32	9121,77
635,52	8763,37
635,72	8665,07
635,92	8396,79
636,12	8460,27
636,32	8388,59
636,52	8298,48
636,71	8200,18
636,91	8136,69
637,11	8151,03
637,31	7972,86
637,51	7686,14
637,71	7837,69
637,91	7766,01
638,11	7520,26
638,30	7311,36
638,50	7571,45
638,70	7292,93
638,90	7299,07
639,10	7067,65
639,30	7073,80
639,50	7112,71
639,69	7002,12
639,89	6981,64
640,09	6889,48
640,29	6739,98
640,49	6739,98
640,69	6561,81
640,88	6524,94
641,08	6465,55
641,28	6334,48
641,48	6447,12
641,68	6152,21
641,88	5998,61
642,07	6021,14
642,27	6098,96
642,47	5947,42
642,67	5898,26
642,87	5795,87
643,07	5726,23
643,26	5865,50
643,46	5640,22
643,66	5668,89
643,86	5494,81
644,06	5462,05
644,26	5478,43
644,45	5318,69
644,65	5273,63
644,85	5314,59
645,05	5187,62
645,25	5228,58
645,44	4964,39
645,64	5089,32
645,84	5029,93
646,04	4800,55
646,24	4827,18
646,43	4866,09
646,63	4835,37
646,83	4749,35
647,03	4798,50
647,23	4538,41
647,42	4696,11
647,62	4640,81
647,82	4343,86
648,02	4323,38
648,22	4456,49
648,41	4382,77
648,61	4251,70
648,81	4321,33
649,01	4235,31
649,20	4188,21
649,40	4106,29
649,60	4165,68
649,80	4028,47
650,00	3905,59
650,19	3985,46
650,39	3878,97
650,59	4079,67
650,79	3774,52
650,98	3751,99
651,18	3725,37
651,38	3731,51
651,58	3649,59
651,77	3651,64
651,97	3598,39
652,17	3561,53
652,37	3524,67
652,56	3366,97
652,76	3541,05
652,96	3557,44
653,16	3485,76
653,35	3416,13
653,55	3199,04
653,75	3430,46
653,95	3393,60
654,14	3184,71
654,34	3158,08
654,54	3221,57
654,74	3170,37
654,93	3221,57
655,13	3276,86
655,33	3037,25
655,52	3059,78
655,72	3088,45
655,92	2902,09
656,12	3045,44
656,31	2975,81
656,51	2877,51
656,71	2945,09
656,91	2859,08
657,10	2744,39
657,30	2687,05
657,50	2832,45
657,69	2793,54
657,89	2924,61
658,09	2832,45
658,29	2805,83
658,48	2752,58
658,68	2811,97
658,88	2707,53
659,07	2641,99
659,27	2664,52
659,47	2574,41
659,66	2611,27
659,86	2496,59
660,06	2523,21
660,26	2435,15
660,45	2717,77
660,65	2496,59
660,85	2711,62
661,04	2336,85
661,24	2402,38
661,44	2345,04
661,63	2410,57
661,83	2478,16
662,03	2342,99
662,22	2386,00
662,42	2351,18
662,62	2310,22
662,81	2211,92
663,01	2351,18
663,21	2289,74
663,40	2080,85
663,60	2271,31
663,80	2177,10
663,99	2310,22
664,19	2242,64
664,39	2248,78
664,58	2213,97
664,78	2089,04
664,98	2000,98
665,17	2205,78
665,37	2121,81
665,57	2312,27
665,76	2164,82
665,96	2023,51
666,16	2086,99
666,35	2109,52
666,55	2009,17
666,74	2015,32
666,94	2013,27
667,14	1892,44
667,33	1927,25
667,53	2021,46
667,73	1957,97
667,92	2005,08
668,12	1896,53
668,32	1964,12
668,51	1790,04
668,71	1931,35
668,90	1859,67
669,10	1894,48
669,30	1833,05
669,49	1937,49
669,69	1970,26
669,89	1781,85
670,08	1945,68
670,28	2125,91
670,47	1857,62
670,67	1831,00
670,87	1808,47
671,06	1869,91
671,26	1851,48
671,45	1697,88
671,65	1851,48
671,85	1683,54
672,04	1693,78
672,24	1798,23
672,43	1771,61
672,63	1749,08
672,83	1591,39
673,02	1708,12
673,22	1634,39
673,41	1615,96
673,61	1550,43
673,81	1669,21
674,00	1691,74
674,20	1663,06
674,39	1599,58
674,59	1583,19
674,78	1656,92
674,98	1630,30
675,18	1648,73
675,37	1613,91
675,57	1640,54
675,76	1513,56
675,96	1556,57
676,15	1540,19
676,35	1480,80
676,55	1624,15
676,74	1607,77
676,94	1480,80
677,13	1402,97
677,33	1597,53
677,52	1609,82
677,72	1501,27
677,91	1421,40
678,11	1499,23
678,31	1456,22
678,50	1540,19
678,70	1400,92
678,89	1587,29
679,09	1579,10
679,28	1542,23
679,48	1429,60
679,67	1431,64
679,87	1460,32
680,06	1679,45
680,26	1572,95
680,46	1497,18
680,65	1525,85
680,85	1413,21
681,04	1390,68
681,24	1439,84
681,43	1488,99
681,63	1347,68
681,82	1493,08
682,02	1355,87
682,21	1411,16
682,41	1370,20
682,60	1437,79
682,80	1407,07
682,99	1425,50
683,19	1464,41
683,38	1493,08
683,58	1302,62
683,77	1290,33
683,97	1341,53
684,16	1476,70
684,36	1245,28
684,55	1331,29
684,75	1306,72
684,94	1368,16
685,14	1359,97
685,33	1230,94
685,53	1325,15
685,72	1288,29
685,92	1368,16
686,11	1216,61
686,31	1316,96
686,50	1409,12
686,70	1353,82
686,89	1210,46
687,09	1271,90
687,28	1357,92
687,48	1333,34
687,67	1294,43
687,87	1189,98
688,06	1153,12
688,26	1288,29
688,45	1202,27
688,65	1308,77
688,84	1232,99
689,03	1194,08
689,23	1212,51
689,42	1308,77
689,62	1226,85
689,81	1239,13
690,01	1224,80
690,20	1218,66
690,40	1273,95
690,59	1402,97
690,79	1216,61
690,98	1175,65
691,17	1106,02
691,37	1210,46
691,56	1087,59
691,76	1312,86
691,95	1261,66
692,15	1087,59
692,34	1255,52
692,54	1138,78
692,73	1177,70
692,92	1239,13
693,12	1112,16
693,31	1144,93
693,51	1110,11
693,70	1101,92
693,90	1194,08
694,09	995,43
694,28	1108,06
694,48	1189,98
694,67	1099,87
694,87	1228,90
695,06	1085,54
695,26	1196,13
695,45	1116,26
695,64	1167,46
695,84	1120,35
696,03	1058,91
696,23	1060,96
696,42	1103,97
696,61	1097,83
696,81	1071,20
697,00	948,32
697,20	1128,54
697,39	1069,15
697,58	962,66
697,78	1052,77
697,97	1038,43
698,17	993,38
698,36	940,13
698,55	919,65
698,75	1091,68
698,94	983,14
699,14	1087,59
699,33	1075,30
699,52	1149,02
699,72	972,90
699,91	979,04
700,10	1001,57
700,30	933,99
700,49	985,19
700,69	997,47
700,88	972,90
701,07	1017,95
701,27	1001,57
701,46	1116,26
701,65	974,95
701,85	983,14
702,04	954,47
702,23	823,40
702,43	933,99
702,62	868,45
702,82	954,47
703,01	1060,96
703,20	1022,05
703,40	976,99
703,59	933,99
703,78	927,84
703,98	893,03
704,17	903,27
704,36	948,32
704,56	983,14
704,75	776,29
704,94	974,95
705,14	987,23
705,33	858,21
705,52	872,55
705,72	784,49
705,91	897,12
706,10	903,27
706,30	944,23
706,49	907,36
706,68	905,32
706,88	899,17
707,07	882,79
707,26	868,45
707,46	895,08
707,65	899,17
707,84	909,41
708,04	749,67
708,23	882,79
708,42	845,92
708,62	751,72
708,81	813,16
709,00	991,33
709,19	882,79
709,39	766,05
709,58	870,50
709,77	823,40
709,97	868,45
710,16	800,87
710,35	895,08
710,55	772,20
710,74	823,40
710,93	796,77
711,12	778,34
711,32	850,02
711,51	862,31
711,70	694,38
711,90	776,29
712,09	764,01
712,28	815,21
712,47	757,86
712,67	784,49
712,86	817,25
713,05	770,15
713,24	671,85
713,44	796,77
713,63	786,53
713,82	747,62
714,02	721,00
714,21	774,25
714,40	796,77
714,59	696,42
714,79	624,74
714,98	637,03
715,17	946,28
715,36	647,27
715,56	745,57
715,75	700,52
715,94	784,49
716,13	733,29
716,33	700,52
716,52	708,71
716,71	622,70
716,90	727,14
717,10	735,33
717,29	680,04
717,48	872,55
717,67	741,48
717,87	686,18
718,06	688,23
718,25	667,75
718,44	753,77
718,63	583,78
718,83	579,69
719,02	659,56
719,21	637,03
719,40	579,69
719,60	632,94
719,79	659,56
719,98	602,22
720,17	559,21
720,36	686,18
720,56	612,46
720,75	553,07
720,94	673,90
721,13	542,83
721,33	673,90
721,52	526,44
721,71	667,75
721,90	604,26
722,09	501,87
722,29	610,41
722,48	501,87
722,67	518,25
722,86	774,25
723,05	614,50
723,24	612,46
723,44	477,29
723,63	579,69
723,82	604,26
724,01	512,11
724,20	655,46
724,40	491,63
724,59	516,20
724,78	536,68
724,97	485,48
725,16	508,01
725,35	571,50
725,55	655,46
725,74	430,19
725,93	698,47
726,12	489,58
726,31	604,26
726,51	622,70
726,70	587,88
726,89	596,07
727,08	491,63
727,27	594,02
727,46	606,31
727,65	571,50
727,85	536,68
728,04	522,35
728,23	397,42
728,42	526,44
728,61	430,19
728,80	528,49
729,00	485,48
729,19	454,76
729,38	602,22
729,57	489,58
729,76	399,47
729,95	551,02
730,14	383,08
730,33	505,96
730,53	424,04
730,72	381,04
730,91	399,47
731,10	473,19
731,29	477,29
731,48	512,11
731,67	411,76
731,86	434,28
732,06	460,91
732,25	532,59
732,44	465,00
732,63	403,56
732,82	424,04
733,01	551,02
733,20	362,60
733,39	460,91
733,59	305,26
733,78	383,08
733,97	446,57
734,16	499,82
734,35	479,34
734,54	432,24
734,73	438,38
734,92	403,56
735,11	383,08
735,30	442,48
735,49	448,62
735,69	542,83
735,88	383,08
736,07	442,48
736,26	346,22
736,45	458,86
736,64	358,51
736,83	434,28
737,02	393,32
737,21	436,33
737,40	428,14
737,59	477,29
737,78	299,12
737,98	346,22
738,17	301,17
738,36	407,66
738,55	317,55
738,74	354,41
738,93	350,32
739,12	249,97
739,31	319,60
739,50	260,21
739,69	378,99
739,88	354,41
740,07	403,56
740,26	323,69
740,45	432,24
740,64	360,56
740,83	317,55
741,02	254,06
741,22	391,28
741,41	335,98
741,60	333,93
741,79	319,60
741,98	299,12
742,17	311,41
742,36	436,33
742,55	301,17
742,74	473,19
742,93	317,55
743,12	387,18
743,31	331,88
743,50	340,08
743,69	344,17
743,88	317,55
744,07	290,93
744,26	452,71
744,45	286,83
744,64	415,85
744,83	317,55
745,02	196,72
745,21	413,80
745,40	280,69
745,59	307,31
745,78	243,82
745,97	407,66
746,16	305,26
746,35	424,04
746,54	215,15
746,73	221,29
746,92	317,55
747,11	340,08
747,30	313,45
747,49	309,36
747,68	299,12
747,87	299,12
748,06	354,41
748,25	307,31
748,44	305,26
748,63	303,21
748,82	186,48
749,01	305,26
749,20	278,64
749,39	276,59
749,58	329,84
749,77	252,01
749,96	309,36
750,15	209,01
750,34	260,21
750,53	327,79
750,72	313,45
750,91	190,57
751,10	354,41
751,29	243,82
751,48	116,85
751,67	176,24
751,86	254,06
752,04	280,69
752,23	280,69
752,42	272,49
752,61	292,97
752,80	254,06
752,99	209,01
753,18	206,96
753,37	266,35
753,56	104,56
753,75	182,38
753,94	229,49
754,13	233,58
754,32	180,34
754,51	192,62
754,70	290,93
754,89	280,69
755,08	219,25
755,27	217,20
755,45	325,74
755,64	223,34
755,83	233,58
756,02	288,88
756,21	213,10
756,40	254,06
756,59	168,05
756,78	233,58
756,97	262,25
757,16	278,64
757,35	376,94
757,54	239,73
757,72	280,69
757,91	192,62
758,10	290,93
758,29	135,28
758,48	284,78
758,67	213,10
758,86	166,00
759,05	180,34
759,24	241,77
759,43	188,53
759,61	79,98
759,80	221,29
759,99	274,54
760,18	159,86
760,37	184,43
760,56	147,57
760,75	235,63
760,94	231,53
761,13	227,44
761,31	280,69
761,50	194,67
761,69	161,90
761,88	194,67
762,07	137,33
762,26	231,53
762,45	202,86
762,64	227,44
762,82	186,48
763,01	249,97
763,20	176,24
763,39	202,86
763,58	192,62
763,77	149,62
763,96	153,71
764,14	176,24
764,33	176,24
764,52	168,05
764,71	258,16
764,90	272,49
765,09	221,29
765,27	116,85
765,46	112,75
765,65	143,47
765,84	149,62
766,03	198,77
766,22	143,47
766,41	77,94
766,59	176,24
766,78	260,21
766,97	112,75
767,16	186,48
767,35	161,90
767,54	278,64
767,72	221,29
767,91	225,39
768,10	57,46
768,29	122,99
768,48	159,86
768,66	188,53
768,85	231,53
769,04	135,28
769,23	178,29
769,42	110,70
769,61	186,48
769,79	225,39
769,98	231,53
770,17	149,62
770,36	223,34
770,55	143,47
770,73	215,15
770,92	231,53
771,11	247,92
771,30	198,77
771,49	157,81
771,67	254,06
771,86	180,34
772,05	79,98
772,24	110,70
772,42	206,96
772,61	163,95
772,80	116,85
772,99	100,46
773,18	149,62
773,36	112,75
773,55	180,34
773,74	131,18
773,93	223,34
774,11	43,12
774,30	237,68
774,49	79,98
774,68	161,90
774,87	157,81
775,05	67,70
775,24	114,80
775,43	192,62
775,62	106,61
775,80	247,92
775,99	73,84
776,18	235,63
776,37	147,57
776,55	245,87
776,74	194,67
776,93	137,33
777,12	159,86
777,30	137,33
777,49	188,53
777,68	184,43
777,87	229,49
778,05	82,03
778,24	174,19
778,43	120,94
778,62	118,90
778,80	161,90
778,99	215,15
779,18	200,81
779,36	184,43
779,55	100,46
779,74	215,15
779,93	221,29
780,11	172,14
780,30	102,51
780,49	127,09
780,68	79,98
780,86	174,19
781,05	137,33
781,24	141,42
781,42	198,77
781,61	174,19
781,80	30,83
781,98	204,91
782,17	180,34
782,36	122,99
782,55	116,85
782,73	108,66
782,92	266,35
783,11	106,61
783,29	172,14
783,48	178,29
783,67	176,24
783,85	133,23
784,04	206,96
784,23	190,57
784,42	92,27
784,60	108,66
784,79	168,05
784,98	137,33
785,16	147,57
785,35	120,94
785,54	172,14
785,72	258,16
785,91	184,43
786,10	116,85
786,28	217,20
786,47	245,87
786,66	39,03
786,84	170,10
787,03	264,30
787,22	145,52
787,40	186,48
787,59	149,62
787,78	143,47
787,96	65,65
788,15	163,95
788,34	137,33
788,52	88,18
788,71	86,13
788,89	172,14
789,08	92,27
789,27	198,77
789,45	194,67
789,64	65,65
789,83	196,72
790,01	88,18
790,20	184,43
790,39	82,03
790,57	82,03
790,76	90,22
790,95	163,95
791,13	102,51
791,32	139,38
791,50	225,39
791,69	106,61
791,88	235,63
792,06	209,01
792,25	172,14
792,43	53,36
792,62	155,76
792,81	75,89
792,99	92,27
793,18	182,38
793,37	145,52
793,55	147,57
793,74	112,75
793,92	118,90
794,11	94,32
794,30	49,27
794,48	137,33
794,67	88,18
794,85	12,40
795,04	30,83
795,23	163,95
795,41	102,51
795,60	96,37
795,78	114,80
795,97	264,30
796,15	225,39
796,34	174,19
796,53	57,46
796,71	237,68
796,90	157,81
797,08	18,55
797,27	243,82
797,46	153,71
797,64	92,27
797,83	174,19
798,01	153,71
798,20	213,10
798,38	168,05
798,57	28,79
798,76	16,50
798,94	20,59
799,13	122,99
799,31	155,76
799,50	26,74
799,68	94,32
799,87	96,37
800,05	135,28
800,24	127,09
800,43	-10,13
800,61	266,35
800,80	176,24
800,98	94,32
801,17	98,42
801,35	71,79
801,54	90,22
801,72	155,76
801,91	127,09
802,09	108,66
802,28	82,03
802,46	112,75
802,65	104,56
802,84	213,10
803,02	182,38
803,21	153,71
803,39	100,46
803,58	186,48
803,76	166,00
803,95	137,33
804,13	102,51
804,32	96,37
804,50	184,43
804,69	133,23
804,87	182,38
805,06	163,95
805,24	161,90
805,43	55,41
805,61	82,03
805,80	131,18
805,98	49,27
806,17	53,36
806,35	133,23
806,54	127,09
806,72	77,94
806,91	0,11
807,09	57,46
807,28	118,90
807,46	170,10
807,65	106,61
807,83	41,07
808,02	65,65
808,20	104,56
808,39	108,66
808,57	98,42
808,76	166,00
808,94	153,71
809,13	43,12
809,31	110,70
809,49	184,43
809,68	32,88
809,86	104,56
810,05	141,42
810,23	188,53
810,42	129,14
810,60	114,80
810,79	45,17
810,97	32,88
811,16	145,52
811,34	163,95
811,53	94,32
811,71	55,41
811,89	106,61
812,08	82,03
812,26	129,14
812,45	84,08
812,63	51,31
812,82	112,75
813,00	63,60
813,19	18,55
813,37	184,43
813,55	75,89
813,74	32,88
813,92	196,72
814,11	94,32
814,29	-14,22
814,48	178,29
814,66	166,00
814,84	172,14
815,03	161,90
815,21	139,38
815,40	116,85
815,58	47,22
815,77	77,94
815,95	131,18
816,13	100,46
816,32	243,82
816,50	159,86
816,69	114,80
816,87	6,26
817,05	104,56
817,24	151,66
817,42	170,10
817,61	125,04
817,79	180,34
817,97	90,22
818,16	94,32
818,34	270,45
818,53	112,75
818,71	133,23
818,89	47,22
819,08	131,18
819,26	139,38
819,45	118,90
819,63	41,07
819,81	147,57
820,00	290,93
820,18	4,21
820,36	133,23
820,55	55,41
820,73	53,36
820,92	86,13
821,10	39,03
821,28	22,64
821,47	108,66
821,65	116,85
821,83	221,29
822,02	71,79
822,20	53,36
822,39	51,31
822,57	34,93
822,75	114,80
822,94	92,27
823,12	49,27
823,30	47,22
823,49	172,14
823,67	129,14
823,85	149,62
824,04	36,98
824,22	135,28
824,40	151,66
824,59	147,57
824,77	155,76
824,95	28,79
825,14	157,81
825,32	198,77
825,50	94,32
825,69	116,85
825,87	268,40
826,05	73,84
826,24	114,80
826,42	206,96
826,60	159,86
826,79	75,89
826,97	41,07
827,15	43,12
827,34	59,50
827,52	-1,93
827,70	110,70
827,89	10,35
828,07	43,12
828,25	141,42
828,44	168,05
828,62	36,98
828,80	180,34
828,98	100,46
829,17	77,94
829,35	112,75
829,53	125,04
829,72	112,75
829,90	-10,13
830,08	82,03
830,27	168,05
830,45	170,10
830,63	149,62
830,81	51,31
831,00	112,75
831,18	67,70
831,36	77,94
831,55	139,38
831,73	125,04
831,91	122,99
832,09	209,01
832,28	200,81
832,46	110,70
832,64	116,85
832,82	47,22
833,01	94,32
833,19	155,76
833,37	51,31
833,55	77,94
833,74	112,75
833,92	82,03
834,10	39,03
834,29	100,46
834,47	73,84
834,65	147,57
834,83	32,88
835,02	71,79
835,20	28,79
835,38	82,03
835,56	104,56
835,75	112,75
835,93	157,81
836,11	32,88
836,29	43,12
836,47	82,03
836,66	43,12
836,84	161,90
837,02	12,40
837,20	86,13
837,39	127,09
837,57	65,65
837,75	108,66
837,93	88,18
838,12	36,98
838,30	71,79
838,48	96,37
838,66	51,31
838,84	92,27
839,03	194,67
839,21	67,70
839,39	53,36
839,57	92,27
839,75	61,55
839,94	98,42
840,12	98,42
840,30	26,74
840,48	98,42
840,66	63,60
840,85	65,65
841,03	43,12
841,21	102,51
841,39	131,18
841,57	102,51
841,76	122,99
841,94	209,01
842,12	135,28
842,30	116,85
842,48	184,43
842,67	82,03
842,85	55,41
843,03	145,52
843,21	131,18
843,39	137,33
843,57	30,83
843,76	77,94
843,94	28,79
844,12	120,94
844,30	26,74
844,48	57,46
844,66	194,67
844,85	98,42
845,03	41,07
845,21	86,13
845,39	186,48
845,57	145,52
845,75	94,32
845,94	57,46
846,12	84,08
846,30	84,08
846,48	43,12
846,66	178,29
846,84	43,12
847,02	79,98
847,21	112,75
847,39	18,55
847,57	114,80
847,75	6,26
847,93	0,11
848,11	0,11
848,29	39,03
848,48	45,17
848,66	104,56
848,84	190,57
849,02	10,35
849,20	73,84
849,38	166,00
849,56	172,14
849,74	41,07
849,93	196,72
850,11	2,16
850,29	53,36
850,47	120,94
850,65	108,66
850,83	-1,93
851,01	16,50
851,19	120,94
851,37	73,84
851,56	139,38
851,74	168,05
851,92	53,36
852,10	108,66
852,28	82,03
852,46	94,32
852,64	24,69
852,82	88,18
853,00	127,09
853,18	114,80
853,37	71,79
853,55	125,04
853,73	30,83
853,91	110,70
854,09	133,23
854,27	114,80
854,45	59,50
854,63	129,14
854,81	114,80
854,99	67,70
855,17	77,94
855,35	0,11
855,53	100,46
855,72	59,50
855,90	96,37
856,08	196,72
856,26	39,03
856,44	166,00
856,62	10,35
856,80	8,31
856,98	16,50
857,16	73,84
857,34	79,98
857,52	149,62
857,70	147,57
857,88	137,33
858,06	120,94
858,24	90,22
858,42	184,43
858,60	88,18
858,78	-20,37
858,96	86,13
859,15	6,26
859,33	125,04
859,51	67,70
859,69	77,94
859,87	94,32
860,05	79,98
860,23	135,28
860,41	104,56
860,59	139,38
860,77	61,55
860,95	73,84
861,13	41,07
861,31	30,83
861,49	86,13
861,67	53,36
861,85	98,42
862,03	110,70
862,21	88,18
862,39	125,04
862,57	153,71
862,75	51,31
862,93	88,18
863,11	131,18
863,29	-55,18
863,47	77,94
863,65	120,94
863,83	-32,65
864,01	96,37
864,19	94,32
864,37	47,22
864,55	90,22
864,73	71,79
864,91	133,23
865,09	125,04
865,27	94,32
865,45	77,94
865,63	75,89
865,81	116,85
865,99	57,46
866,17	57,46
866,35	104,56
866,53	137,33
866,71	104,56
866,89	129,14
867,07	133,23
867,24	59,50
867,42	90,22
867,60	155,76
867,78	106,61
867,96	77,94
868,14	143,47
868,32	147,57
868,50	77,94
868,68	36,98
868,86	137,33
869,04	79,98
869,22	26,74
869,40	-28,56
869,58	41,07
869,76	122,99
869,94	22,64
870,12	-79,76
870,30	8,31
870,48	106,61
870,66	69,74
870,83	57,46
871,01	82,03
871,19	-3,98
871,37	51,31
871,55	-36,75
871,73	28,79
871,91	82,03
872,09	155,76
872,27	106,61
872,45	51,31
872,63	0,11
872,81	6,26
872,98	55,41
873,16	120,94
873,34	92,27
873,52	34,93
873,70	86,13
873,88	129,14
874,06	49,27
874,24	108,66
874,42	-18,32
874,60	-14,22
874,78	-1,93
874,95	41,07
875,13	106,61
875,31	71,79
875,49	120,94
875,67	69,74
875,85	28,79
876,03	133,23
876,21	51,31
876,39	16,50
876,56	131,18
876,74	-14,22
876,92	79,98
877,10	47,22
877,28	79,98
877,46	51,31
877,64	118,90
877,82	161,90
877,99	8,31
878,17	116,85
878,35	90,22
878,53	188,53
878,71	182,38
878,89	106,61
879,07	94,32
879,24	122,99
879,42	131,18
879,60	90,22
879,78	209,01
879,96	51,31
880,14	225,39
880,32	63,60
880,49	63,60
880,67	155,76
880,85	92,27
881,03	71,79
881,21	163,95
881,39	32,88
881,56	125,04
881,74	47,22
881,92	-1,93
882,10	36,98
882,28	92,27
882,46	79,98
882,63	2,16
882,81	24,69
882,99	59,50
883,17	71,79
883,35	139,38
883,52	90,22
883,70	75,89
883,88	49,27
884,06	116,85
884,24	96,37
884,42	182,38
884,59	94,32
884,77	65,65
884,95	71,79
885,13	108,66
885,31	180,34
885,48	20,59
885,66	159,86
885,84	63,60
886,02	16,50
886,20	137,33
886,37	79,98
886,55	196,72
886,73	110,70
886,91	63,60
887,08	84,08
887,26	79,98
887,44	65,65
887,62	-6,03
887,80	108,66
887,97	172,14
888,15	110,70
888,33	26,74
888,51	55,41
888,68	16,50
888,86	125,04
889,04	51,31
889,22	120,94
889,40	16,50
889,57	69,74
889,75	100,46
889,93	57,46
890,11	114,80
890,28	104,56
890,46	-1,93
890,64	79,98
890,82	102,51
890,99	133,23
891,17	84,08
891,35	22,64
891,53	67,70
891,70	-1,93
891,88	-1,93
892,06	30,83
892,24	-28,56
892,41	32,88
892,59	32,88
892,77	77,94
892,94	131,18
893,12	100,46
893,30	-14,22
893,48	131,18
893,65	51,31
893,83	127,09
894,01	106,61
894,19	127,09
894,36	149,62
894,54	-36,75
894,72	139,38
894,89	-22,41
895,07	92,27
895,25	133,23
895,43	32,88
895,60	125,04
895,78	139,38
895,96	108,66
896,13	75,89
896,31	170,10
896,49	82,03
896,66	8,31
896,84	92,27
897,02	41,07
897,20	61,55
897,37	51,31
897,55	16,50
897,73	145,52
897,90	116,85
898,08	149,62
898,26	114,80
898,43	112,75
898,61	12,40
898,79	82,03
898,96	-6,03
899,14	20,59
899,32	145,52
899,49	61,55
899,67	106,61
899,85	127,09
900,02	192,62
900,20	39,03
900,38	120,94
900,55	151,66
900,73	243,82
900,91	-12,17
901,08	82,03
901,26	-16,27
901,44	63,60
901,61	69,74
901,79	63,60
901,97	139,38
902,14	92,27
902,32	129,14
902,50	53,36
902,67	92,27
902,85	155,76
903,02	82,03
903,20	12,40
903,38	100,46
903,55	-96,14
903,73	57,46
903,91	163,95
904,08	116,85
904,26	186,48
904,44	196,72
904,61	-22,41
904,79	65,65
904,96	53,36
905,14	120,94
905,32	137,33
905,49	39,03
905,67	53,36
905,84	4,21
906,02	84,08
906,20	67,70
906,37	254,06
906,55	84,08
906,73	75,89
906,90	114,80
907,08	129,14
907,25	82,03
907,43	161,90
907,61	-6,03
907,78	41,07
907,96	-51,09
908,13	153,71
908,31	215,15
908,48	108,66
908,66	108,66
908,84	96,37
909,01	157,81
909,19	114,80
909,36	49,27
909,54	120,94
909,72	112,75
909,89	-57,23
910,07	-71,57
910,24	168,05
910,42	200,81
910,59	34,93
910,77	63,60
910,95	-49,04
911,12	32,88
911,30	96,37
911,47	131,18
911,65	86,13
911,82	61,55
912,00	127,09
912,17	102,51
912,35	102,51
912,53	75,89
912,70	143,47
912,88	-24,46
913,05	30,83
913,23	133,23
913,40	176,24
913,58	12,40
913,75	65,65
913,93	20,59
914,10	20,59
914,28	41,07
914,46	47,22
914,63	26,74
914,81	77,94
914,98	57,46
915,16	39,03
915,33	-44,94
915,51	67,70
915,68	166,00
915,86	65,65
916,03	14,45
916,21	30,83
916,38	49,27
916,56	67,70
916,73	90,22
916,91	65,65
917,08	47,22
917,26	137,33
917,43	49,27
917,61	-16,27
917,78	147,57
917,96	14,45
918,13	41,07
918,31	98,42
918,48	14,45
918,66	-22,41
918,83	180,34
919,01	30,83
919,18	34,93
919,36	-53,13
919,53	112,75
919,71	188,53
919,88	102,51
920,06	122,99
920,23	34,93
920,41	69,74
920,58	-12,17
920,76	82,03
920,93	100,46
921,11	43,12
921,28	2,16
921,45	125,04
921,63	69,74
921,80	79,98
921,98	86,13
922,15	32,88
922,33	-6,03
922,50	106,61
922,68	65,65
922,85	65,65
923,03	65,65
923,20	170,10
923,38	65,65
923,55	129,14
923,72	57,46
923,90	237,68
924,07	14,45
924,25	112,75
924,42	166,00
924,60	10,35
924,77	-16,27
924,95	194,67
925,12	51,31
925,29	114,80
925,47	36,98
925,64	24,69
925,82	77,94
925,99	30,83
926,17	51,31
926,34	71,79
926,51	102,51
926,69	145,52
926,86	118,90
927,04	63,60
927,21	47,22
927,38	-1,93
927,56	61,55
927,73	67,70
927,91	100,46
928,08	264,30
928,25	116,85
928,43	63,60
928,60	10,35
928,78	122,99
928,95	84,08
929,12	88,18
929,30	39,03
929,47	88,18
929,65	71,79
929,82	-8,08
929,99	180,34
930,17	41,07
930,34	57,46
930,52	90,22
930,69	73,84
930,86	127,09
931,04	10,35
931,21	-12,17
931,38	106,61
931,56	92,27
931,73	221,29
931,91	108,66
932,08	90,22
932,25	176,24
932,43	0,11
932,60	104,56
932,77	75,89
932,95	34,93
933,12	135,28
933,29	73,84
933,47	88,18
933,64	36,98
933,82	86,13
933,99	118,90
934,16	47,22
934,34	155,76
934,51	12,40
934,68	96,37
934,86	159,86
935,03	45,17
935,20	20,59
935,38	86,13
935,55	30,83
935,72	131,18
935,90	63,60
936,07	67,70
936,24	32,88
936,42	127,09
936,59	147,57
936,76	172,14
936,94	-8,08
937,11	122,99
937,28	10,35
937,46	94,32
937,63	155,76
937,80	96,37
937,97	219,25
938,15	131,18
938,32	75,89
938,49	194,67
938,67	26,74
938,84	112,75
939,01	4,21
939,19	125,04
939,36	118,90
939,53	118,90
939,70	90,22
939,88	100,46
940,05	186,48
940,22	73,84
940,40	147,57
940,57	84,08
940,74	24,69
940,92	75,89
941,09	100,46
941,26	32,88
941,43	147,57
941,61	59,50
941,78	36,98
941,95	145,52
942,12	8,31
942,30	120,94
942,47	125,04
942,64	28,79
942,82	59,50
942,99	168,05
943,16	14,45
943,33	114,80
943,51	8,31
943,68	45,17
943,85	75,89
944,02	104,56
944,20	161,90
944,37	36,98
944,54	127,09
944,71	98,42
944,89	151,66
945,06	12,40
945,23	39,03
945,40	118,90
945,58	28,79
945,75	34,93
945,92	163,95
946,09	34,93
946,27	82,03
946,44	6,26
946,61	237,68
946,78	12,40
946,95	-3,98
947,13	67,70
947,30	102,51
947,47	39,03
947,64	39,03
947,82	6,26
947,99	-38,80
948,16	120,94
948,33	63,60
948,50	47,22
948,68	127,09
948,85	59,50
949,02	186,48
949,19	-18,32
949,36	129,14
949,54	90,22
949,71	229,49
949,88	55,41
950,05	-14,22
950,22	47,22
950,40	116,85
950,57	26,74
950,74	161,90
950,91	129,14
951,08	-8,08
951,26	53,36
951,43	65,65
951,60	32,88
951,77	172,14
951,94	118,90
952,11	96,37
952,29	110,70
952,46	-3,98
952,63	153,71
952,80	57,46
952,97	116,85
953,15	141,42
953,32	116,85
953,49	75,89
953,66	120,94
953,83	-57,23
954,00	65,65
954,17	63,60
954,35	172,14
954,52	49,27
954,69	88,18
954,86	127,09
955,03	143,47
955,20	86,13
955,38	28,79
955,55	108,66
955,72	137,33
955,89	10,35
956,06	108,66
956,23	108,66
956,40	67,70
956,58	0,11
956,75	14,45
956,92	41,07
957,09	28,79
957,26	67,70
957,43	106,61
957,60	104,56
957,77	43,12
957,95	90,22
958,12	43,12
958,29	122,99
958,46	180,34
958,63	39,03
958,80	28,79
958,97	192,62
959,14	92,27
959,31	53,36
959,49	96,37
959,66	20,59
959,83	8,31
960,00	65,65
960,17	102,51
960,34	131,18
960,51	67,70
960,68	110,70
960,85	137,33
961,02	28,79
961,20	118,90
961,37	77,94
961,54	131,18
961,71	96,37
961,88	82,03
962,05	55,41
962,22	125,04
962,39	82,03
962,56	100,46
962,73	47,22
962,90	65,65
963,07	79,98
963,24	47,22
963,42	18,55
963,59	161,90
963,76	102,51
963,93	196,72
964,10	6,26
964,27	49,27
964,44	141,42
964,61	180,34
964,78	20,59
964,95	47,22
965,12	51,31
965,29	96,37
965,46	30,83
965,63	172,14
965,80	94,32
965,97	51,31
966,14	30,83
966,31	73,84
966,48	194,67
966,66	92,27
966,83	71,79
967,00	112,75
967,17	155,76
967,34	18,55
967,51	55,41
967,68	137,33
967,85	-6,03
968,02	233,58
968,19	36,98
968,36	114,80
968,53	61,55
968,70	112,75
968,87	57,46
969,04	104,56
969,21	45,17
969,38	268,40
969,55	49,27
969,72	127,09
969,89	166,00
970,06	100,46
970,23	18,55
970,40	59,50
970,57	75,89
970,74	57,46
970,91	14,45
971,08	135,28
971,25	53,36
971,42	106,61
971,59	69,74
971,76	12,40
971,93	61,55
972,10	82,03
972,27	73,84
972,44	53,36
972,61	59,50
972,78	24,69
972,95	65,65
973,12	211,05
973,29	86,13
973,46	12,40
973,63	18,55
973,80	184,43
973,97	41,07
974,14	100,46
974,30	149,62
974,47	172,14
974,64	118,90
974,81	82,03
974,98	151,66
975,15	10,35
975,32	125,04
975,49	82,03
975,66	151,66
975,83	73,84
976,00	204,91
976,17	8,31
976,34	77,94
976,51	143,47
976,68	6,26
976,85	59,50
977,02	73,84
977,19	8,31
977,36	28,79
977,52	92,27
977,69	125,04
977,86	139,38
978,03	71,79
978,20	120,94
978,37	129,14
978,54	137,33
978,71	166,00
978,88	223,34
979,05	75,89
979,22	67,70
979,39	131,18
979,56	28,79
979,72	49,27
979,89	94,32
980,06	174,19
980,23	120,94
980,40	-20,37
980,57	24,69
980,74	41,07
980,91	41,07
981,08	84,08
981,25	106,61
981,41	90,22
981,58	55,41
981,75	-6,03
981,92	45,17
982,09	100,46
982,26	71,79
982,43	-1,93
982,60	88,18
982,77	75,89
982,93	14,45
983,10	59,50
983,27	14,45
983,44	79,98
983,61	131,18
983,78	118,90
983,95	20,59
984,11	14,45
984,28	155,76
984,45	4,21
984,62	79,98
984,79	-3,98
984,96	71,79
985,13	77,94
985,30	157,81
985,46	-8,08
985,63	43,12
985,80	84,08
985,97	67,70
986,14	28,79
986,31	43,12
986,47	-12,17
986,64	-18,32
986,81	28,79
986,98	43,12
987,15	82,03
987,32	55,41
987,48	65,65
987,65	100,46
987,82	100,46
987,99	125,04
988,16	354,41
988,33	204,91
988,49	88,18
988,66	98,42
988,83	116,85
989,00	168,05
989,17	2,16
989,34	90,22
989,50	102,51
989,67	16,50
989,84	69,74
990,01	49,27
990,18	125,04
990,34	49,27
990,51	28,79
990,68	75,89
990,85	100,46
991,02	53,36
991,18	36,98
991,35	61,55
991,52	63,60
991,69	75,89
991,86	39,03
992,02	122,99
992,19	-44,94
992,36	104,56
992,53	67,70
992,69	102,51
992,86	75,89
993,03	178,29
993,20	39,03
993,37	96,37
993,53	135,28
993,70	133,23
993,87	6,26
994,04	106,61
994,20	45,17
994,37	51,31
994,54	94,32
994,71	-1,93
994,87	116,85
995,04	51,31
995,21	79,98
995,38	96,37
995,55	-16,27
995,71	100,46
995,88	77,94
996,05	94,32
996,22	237,68
996,38	106,61
996,55	141,42
996,72	-75,66
996,88	258,16
997,05	1151,07
997,22	139,38
997,39	49,27
997,55	122,99
997,72	67,70
997,89	-14,22
998,06	55,41
998,22	98,42
998,39	49,27
998,56	30,83
998,73	53,36
998,89	41,07
999,06	77,94
999,23	82,03
999,39	28,79
999,56	141,42
999,73	34,93
999,90	-1,93
1000,06	188,53
1000,23	92,27
1000,40	106,61
1000,56	163,95
1000,73	43,12
1000,90	100,46
1001,06	127,09
1001,23	39,03
1001,40	157,81
1001,57	122,99
1001,73	16,50
1001,90	49,27
1002,07	96,37
1002,23	92,27
1002,40	69,74
1002,57	45,17
1002,73	34,93
1002,90	6,26
1003,07	127,09
1003,23	-3,98
1003,40	65,65
1003,57	36,98
1003,73	18,55
1003,90	143,47
1004,07	26,74
1004,23	79,98
1004,40	104,56
1004,57	106,61
1004,73	-36,75
1004,90	16,50
1005,07	120,94
1005,23	84,08
1005,40	-6,03
1005,57	49,27
1005,73	106,61
1005,90	69,74
1006,07	69,74
1006,23	67,70
1006,40	53,36
1006,57	36,98
1006,73	106,61
1006,90	65,65
1007,06	161,90
1007,23	6,26
1007,40	2,16
1007,56	51,31
1007,73	131,18
1007,90	112,75
1008,06	90,22
1008,23	104,56
1008,40	88,18
1008,56	47,22
1008,73	61,55
1008,89	153,71
1009,06	159,86
1009,23	51,31
1009,39	26,74
1009,56	32,88
1009,72	61,55
1009,89	143,47
1010,06	147,57
1010,22	32,88
1010,39	71,79
1010,55	100,46
1010,72	49,27
1010,89	92,27
1011,05	106,61
1011,22	84,08
1011,38	36,98
1011,55	88,18
1011,72	18,55
1011,88	67,70
1012,05	65,65
1012,21	32,88
1012,38	26,74
1012,55	127,09
1012,71	-38,80
1012,88	65,65
1013,04	71,79
1013,21	6,26
1013,37	147,57
1013,54	65,65
1013,71	26,74
1013,87	73,84
1014,04	161,90
1014,20	155,76
1014,37	32,88
1014,53	79,98
1014,70	45,17
1014,87	114,80
1015,03	139,38
1015,20	-16,27
1015,36	53,36
1015,53	94,32
1015,69	98,42
1015,86	63,60
1016,02	100,46
1016,19	135,28
1016,36	12,40
1016,52	65,65
1016,69	67,70
1016,85	75,89
1017,02	155,76
1017,18	28,79
1017,35	65,65
1017,51	43,12
1017,68	149,62
1017,84	34,93
1018,01	2,16
1018,17	122,99
1018,34	143,47
1018,50	28,79
1018,67	49,27
1018,84	129,14
1019,00	-40,85
1019,17	114,80
1019,33	61,55
1019,50	135,28
1019,66	151,66
1019,83	-28,56
1019,99	153,71
1020,16	71,79
1020,32	34,93
1020,49	155,76
1020,65	49,27
1020,82	88,18
1020,98	118,90
1021,15	112,75
1021,31	168,05
1021,48	45,17
1021,64	135,28
1021,81	77,94
1021,97	34,93
1022,14	82,03
1022,30	75,89
1022,47	67,70
1022,63	51,31
1022,79	166,00
1022,96	116,85
1023,12	86,13
1023,29	41,07
1023,45	161,90
1023,62	55,41
1023,78	82,03
1023,95	28,79
1024,11	114,80
1024,28	77,94
1024,44	67,70
1024,61	-96,14
1024,77	20,59
1024,94	77,94
1025,10	10,35
1025,26	39,03
1025,43	71,79
1025,59	39,03
1025,76	104,56
1025,92	104,56
1026,09	26,74
1026,25	127,09
1026,42	32,88
1026,58	6,26
1026,74	163,95
1026,91	71,79
1027,07	36,98
1027,24	166,00
1027,40	102,51
1027,57	120,94
1027,73	43,12
1027,90	118,90
1028,06	104,56
1028,22	116,85
1028,39	106,61
1028,55	110,70
1028,72	145,52
1028,88	184,43
1029,04	73,84
1029,21	112,75
1029,37	12,40
1029,54	204,91
1029,70	116,85
1029,87	22,64
1030,03	24,69
1030,19	170,10
1030,36	45,17
1030,52	61,55
1030,69	20,59
1030,85	41,07
1031,01	73,84
1031,18	53,36
1031,34	122,99
1031,50	59,50
1031,67	92,27
1031,83	104,56
1032,00	-28,56
1032,16	55,41
1032,32	49,27
1032,49	127,09
1032,65	79,98
1032,82	112,75
1032,98	112,75
1033,14	32,88
1033,31	131,18
1033,47	127,09
1033,63	2,16
1033,80	94,32
1033,96	18,55
1034,13	114,80
1034,29	98,42
1034,45	65,65
1034,62	26,74
1034,78	108,66
1034,94	20,59
1035,11	104,56
1035,27	39,03
1035,43	163,95
1035,60	129,14
1035,76	39,03
1035,92	98,42
1036,09	79,98
1036,25	8,31
1036,41	47,22
1036,58	221,29
1036,74	98,42
1036,90	-38,80
1037,07	22,64
1037,23	49,27
1037,39	84,08
1037,56	4,21
1037,72	141,42
1037,88	88,18
1038,05	-51,09
1038,21	143,47
1038,37	112,75
1038,54	65,65
1038,70	161,90
1038,86	106,61
1039,03	127,09
1039,19	82,03
1039,35	26,74
1039,52	26,74
1039,68	22,64
1039,84	51,31
1040,00	149,62
1040,17	125,04
1040,33	2,16
1040,49	106,61
1040,66	77,94
1040,82	63,60
1040,98	110,70
1041,15	106,61
1041,31	88,18
1041,47	-12,17
1041,63	-1,93
1041,80	43,12
1041,96	88,18
1042,12	-3,98
1042,29	118,90
1042,45	231,53
1042,61	-36,75
1042,77	147,57
1042,94	86,13
1043,10	223,34
1043,26	84,08
1043,42	116,85
1043,59	67,70
1043,75	104,56
1043,91	61,55
1044,07	51,31
1044,24	57,46
1044,40	127,09
>>>>>End Processed Spectral Data<<<<<
