SpectraSuite Data File
++++++++++++++++++++++++++++++++++++
Date: Mon Nov 09 12:14:26 BRST 2020
User: Administrador
Dark Spectrum Present: No
Reference Spectrum Present: No
Number of Sampled Component Spectra: 1
Spectrometers: USB4F02573
Integration Time (usec): 100000 (USB4F02573)
Spectra Averaged: 1 (USB4F02573)
Boxcar Smoothing: 0 (USB4F02573)
Correct for Electrical Dark: Yes (USB4F02573)
Strobe/Lamp Enabled: No (USB4F02573)
Correct for Detector Non-linearity: No (USB4F02573)
Correct for Stray Light: No (USB4F02573)
Number of Pixels in Processed Spectrum: 3648
>>>>>Begin Processed Spectral Data<<<<<
345,22	-114,82
345,44	-114,82
345,66	-114,82
345,88	-116,87
346,10	-211,08
346,32	57,21
346,54	30,58
346,75	49,01
346,97	71,54
347,19	79,73
347,41	46,97
347,63	87,93
347,85	77,69
348,07	57,21
348,29	143,22
348,51	1,91
348,73	30,58
348,95	34,68
349,16	87,93
349,38	46,97
349,60	122,74
349,82	100,21
350,04	20,34
350,26	110,45
350,48	98,17
350,70	139,13
350,92	100,21
351,14	135,03
351,35	63,35
351,57	49,01
351,79	46,97
352,01	14,20
352,23	32,63
352,45	61,30
352,67	-0,14
352,89	40,82
353,10	102,26
353,32	79,73
353,54	126,84
353,76	137,08
353,98	128,89
354,20	126,84
354,42	106,36
354,64	139,13
354,85	210,80
355,07	61,30
355,29	57,21
355,51	24,44
355,73	77,69
355,95	28,54
356,17	141,17
356,38	55,16
356,60	59,25
356,82	106,36
357,04	34,68
357,26	38,77
357,48	42,87
357,69	118,65
357,91	55,16
358,13	38,77
358,35	139,13
358,57	73,59
358,79	163,70
359,01	100,21
359,22	85,88
359,44	178,04
359,66	87,93
359,88	63,35
360,10	94,07
360,32	46,97
360,53	77,69
360,75	143,22
360,97	124,79
361,19	67,45
361,41	141,17
361,62	106,36
361,84	38,77
362,06	89,97
362,28	46,97
362,50	190,32
362,72	102,26
362,93	18,30
363,15	-16,52
363,37	102,26
363,59	81,78
363,81	44,92
364,02	186,23
364,24	-0,14
364,46	83,83
364,68	71,54
364,90	229,24
365,11	149,37
365,33	137,08
365,55	38,77
365,77	87,93
365,99	55,16
366,20	184,18
366,42	75,64
366,64	61,30
366,86	44,92
367,07	87,93
367,29	10,10
367,51	42,87
367,73	-53,38
367,95	155,51
368,16	175,99
368,38	167,80
368,60	126,84
368,82	1,91
369,03	120,69
369,25	118,65
369,47	44,92
369,69	-28,81
369,91	10,10
370,12	32,63
370,34	1,91
370,56	12,15
370,78	108,41
370,99	202,61
371,21	94,07
371,43	-8,33
371,65	102,26
371,86	128,89
372,08	167,80
372,30	28,54
372,52	57,21
372,73	61,30
372,95	87,93
373,17	83,83
373,39	-8,33
373,60	81,78
373,82	118,65
374,04	94,07
374,26	112,50
374,47	73,59
374,69	42,87
374,91	216,95
375,12	77,69
375,34	49,01
375,56	79,73
375,78	108,41
375,99	8,06
376,21	200,56
376,43	81,78
376,65	83,83
376,86	81,78
377,08	55,16
377,30	151,41
377,51	46,97
377,73	73,59
377,95	73,59
378,17	77,69
378,38	3,96
378,60	112,50
378,82	149,37
379,03	200,56
379,25	92,02
379,47	143,22
379,68	65,40
379,90	-32,90
380,12	175,99
380,34	55,16
380,55	94,07
380,77	112,50
380,99	40,82
381,20	137,08
381,42	67,45
381,64	36,73
381,85	79,73
382,07	89,97
382,29	104,31
382,50	94,07
382,72	69,49
382,94	79,73
383,15	89,97
383,37	63,35
383,59	57,21
383,80	51,06
384,02	128,89
384,24	102,26
384,45	155,51
384,67	69,49
384,89	6,01
385,10	34,68
385,32	106,36
385,54	182,13
385,75	63,35
385,97	69,49
386,19	208,76
386,40	173,94
386,62	46,97
386,84	110,45
387,05	32,63
387,27	16,25
387,49	28,54
387,70	61,30
387,92	139,13
388,14	-14,47
388,35	83,83
388,57	-0,14
388,79	94,07
389,00	-14,47
389,22	22,39
389,43	104,31
389,65	159,61
389,87	81,78
390,08	-4,23
390,30	120,69
390,52	171,89
390,73	141,17
390,95	8,06
391,17	96,12
391,38	14,20
391,60	221,04
391,81	171,89
392,03	89,97
392,25	71,54
392,46	-80,01
392,68	192,37
392,89	79,73
393,11	-8,33
393,33	79,73
393,54	26,49
393,76	137,08
393,98	65,40
394,19	32,63
394,41	-16,52
394,62	-0,14
394,84	71,54
395,06	6,01
395,27	42,87
395,49	59,25
395,70	169,84
395,92	10,10
396,13	30,58
396,35	98,17
396,57	38,77
396,78	8,06
397,00	24,44
397,21	65,40
397,43	85,88
397,65	85,88
397,86	175,99
398,08	3,96
398,29	157,56
398,51	-41,10
398,72	149,37
398,94	178,04
399,16	184,18
399,37	87,93
399,59	161,65
399,80	75,64
400,02	96,12
400,23	20,34
400,45	67,45
400,67	135,03
400,88	94,07
401,10	85,88
401,31	61,30
401,53	-26,76
401,74	81,78
401,96	77,69
402,17	36,73
402,39	3,96
402,61	69,49
402,82	6,01
403,04	104,31
403,25	49,01
403,47	141,17
403,68	49,01
403,90	178,04
404,11	53,11
404,33	34,68
404,54	171,89
404,76	28,54
404,97	69,49
405,19	126,84
405,41	126,84
405,62	151,41
405,84	71,54
406,05	96,12
406,27	-34,95
406,48	87,93
406,70	77,69
406,91	69,49
407,13	98,17
407,34	87,93
407,56	169,84
407,77	94,07
407,99	108,41
408,20	118,65
408,42	36,73
408,63	73,59
408,85	57,21
409,06	112,50
409,28	251,76
409,49	30,58
409,71	-49,29
409,92	36,73
410,14	77,69
410,35	241,52
410,57	198,52
410,78	-39,05
411,00	85,88
411,21	132,98
411,43	102,26
411,64	59,25
411,86	-6,28
412,07	124,79
412,29	85,88
412,50	26,49
412,72	114,55
412,93	210,80
413,15	126,84
413,36	40,82
413,58	135,03
413,79	89,97
414,01	169,84
414,22	110,45
414,43	141,17
414,65	89,97
414,86	79,73
415,08	69,49
415,29	175,99
415,51	12,15
415,72	16,25
415,94	94,07
416,15	118,65
416,37	194,42
416,58	53,11
416,80	63,35
417,01	46,97
417,22	87,93
417,44	83,83
417,65	98,17
417,87	46,97
418,08	186,23
418,30	12,15
418,51	137,08
418,73	114,55
418,94	106,36
419,15	18,30
419,37	126,84
419,58	79,73
419,80	92,02
420,01	77,69
420,23	14,20
420,44	67,45
420,65	46,97
420,87	139,13
421,08	114,55
421,30	159,61
421,51	108,41
421,73	6,01
421,94	24,44
422,15	32,63
422,37	53,11
422,58	1,91
422,80	36,73
423,01	61,30
423,22	12,15
423,44	8,06
423,65	63,35
423,87	75,64
424,08	147,32
424,29	116,60
424,51	-10,38
424,72	135,03
424,94	20,34
425,15	32,63
425,36	94,07
425,58	96,12
425,79	184,18
426,01	73,59
426,22	65,40
426,43	198,52
426,65	-16,52
426,86	46,97
427,08	102,26
427,29	18,30
427,50	87,93
427,72	79,73
427,93	77,69
428,14	110,45
428,36	55,16
428,57	126,84
428,79	83,83
429,00	137,08
429,21	6,01
429,43	24,44
429,64	145,27
429,85	71,54
430,07	153,46
430,28	16,25
430,49	65,40
430,71	77,69
430,92	28,54
431,14	100,21
431,35	40,82
431,56	122,74
431,78	79,73
431,99	126,84
432,20	77,69
432,42	-0,14
432,63	92,02
432,84	112,50
433,06	57,21
433,27	53,11
433,48	112,50
433,70	135,03
433,91	89,97
434,12	12,15
434,34	106,36
434,55	98,17
434,76	96,12
434,98	22,39
435,19	85,88
435,40	-16,52
435,62	57,21
435,83	108,41
436,04	30,58
436,26	155,51
436,47	94,07
436,68	-16,52
436,90	112,50
437,11	96,12
437,32	20,34
437,54	79,73
437,75	24,44
437,96	77,69
438,17	132,98
438,39	149,37
438,60	42,87
438,81	36,73
439,03	212,85
439,24	14,20
439,45	188,28
439,67	30,58
439,88	55,16
440,09	89,97
440,30	98,17
440,52	28,54
440,73	-43,14
440,94	51,06
441,16	143,22
441,37	137,08
441,58	85,88
441,80	75,64
442,01	71,54
442,22	114,55
442,43	55,16
442,65	186,23
442,86	110,45
443,07	81,78
443,28	-0,14
443,50	6,01
443,71	65,40
443,92	71,54
444,14	6,01
444,35	92,02
444,56	77,69
444,77	22,39
444,99	61,30
445,20	67,45
445,41	85,88
445,62	55,16
445,84	116,60
446,05	75,64
446,26	198,52
446,47	202,61
446,69	92,02
446,90	-2,18
447,11	128,89
447,32	-6,28
447,54	-4,23
447,75	44,92
447,96	106,36
448,17	38,77
448,39	83,83
448,60	-20,62
448,81	87,93
449,02	61,30
449,23	63,35
449,45	104,31
449,66	124,79
449,87	73,59
450,08	89,97
450,30	110,45
450,51	36,73
450,72	145,27
450,93	132,98
451,15	89,97
451,36	44,92
451,57	126,84
451,78	137,08
451,99	104,31
452,21	-53,38
452,42	57,21
452,63	38,77
452,84	69,49
453,05	12,15
453,27	55,16
453,48	180,08
453,69	6,01
453,90	178,04
454,11	42,87
454,33	26,49
454,54	94,07
454,75	46,97
454,96	104,31
455,17	135,03
455,39	114,55
455,60	83,83
455,81	128,89
456,02	89,97
456,23	137,08
456,45	126,84
456,66	12,15
456,87	36,73
457,08	94,07
457,29	198,52
457,50	63,35
457,72	124,79
457,93	106,36
458,14	85,88
458,35	67,45
458,56	139,13
458,77	18,30
458,99	94,07
459,20	94,07
459,41	-14,47
459,62	106,36
459,83	-4,23
460,04	57,21
460,26	87,93
460,47	65,40
460,68	77,69
460,89	65,40
461,10	75,64
461,31	122,74
461,52	55,16
461,74	139,13
461,95	69,49
462,16	28,54
462,37	85,88
462,58	96,12
462,79	94,07
463,00	59,25
463,22	120,69
463,43	32,63
463,64	100,21
463,85	1,91
464,06	108,41
464,27	34,68
464,48	114,55
464,70	137,08
464,91	57,21
465,12	116,60
465,33	145,27
465,54	163,70
465,75	55,16
465,96	102,26
466,17	83,83
466,38	124,79
466,60	49,01
466,81	81,78
467,02	159,61
467,23	116,60
467,44	112,50
467,65	30,58
467,86	161,65
468,07	67,45
468,28	188,28
468,50	36,73
468,71	198,52
468,92	51,06
469,13	40,82
469,34	85,88
469,55	98,17
469,76	12,15
469,97	130,93
470,18	65,40
470,39	149,37
470,60	46,97
470,82	169,84
471,03	6,01
471,24	65,40
471,45	163,70
471,66	98,17
471,87	112,50
472,08	89,97
472,29	79,73
472,50	53,11
472,71	32,63
472,92	98,17
473,13	20,34
473,34	137,08
473,55	44,92
473,77	116,60
473,98	108,41
474,19	128,89
474,40	-26,76
474,61	51,06
474,82	6,01
475,03	169,84
475,24	-39,05
475,45	98,17
475,66	173,94
475,87	49,01
476,08	81,78
476,29	165,75
476,50	87,93
476,71	147,32
476,92	87,93
477,13	63,35
477,34	26,49
477,55	120,69
477,76	132,98
477,97	81,78
478,18	87,93
478,40	24,44
478,61	28,54
478,82	55,16
479,03	83,83
479,24	132,98
479,45	6,01
479,66	155,51
479,87	149,37
480,08	16,25
480,29	110,45
480,50	157,56
480,71	75,64
480,92	157,56
481,13	-14,47
481,34	67,45
481,55	-10,38
481,76	40,82
481,97	151,41
482,18	94,07
482,39	-34,95
482,60	116,60
482,81	34,68
483,02	92,02
483,23	175,99
483,44	79,73
483,65	116,60
483,86	157,56
484,07	104,31
484,28	61,30
484,49	77,69
484,70	100,21
484,91	28,54
485,12	73,59
485,33	-49,29
485,54	118,65
485,75	40,82
485,96	116,60
486,17	26,49
486,38	14,20
486,59	73,59
486,80	159,61
487,01	3,96
487,21	20,34
487,42	28,54
487,63	202,61
487,84	42,87
488,05	59,25
488,26	237,43
488,47	79,73
488,68	42,87
488,89	169,84
489,10	116,60
489,31	122,74
489,52	63,35
489,73	63,35
489,94	272,24
490,15	57,21
490,36	165,75
490,57	77,69
490,78	87,93
490,99	94,07
491,20	51,06
491,41	44,92
491,61	266,10
491,82	81,78
492,03	85,88
492,24	110,45
492,45	96,12
492,66	81,78
492,87	24,44
493,08	61,30
493,29	-0,14
493,50	63,35
493,71	81,78
493,92	42,87
494,13	96,12
494,34	20,34
494,54	147,32
494,75	92,02
494,96	223,09
495,17	143,22
495,38	92,02
495,59	20,34
495,80	26,49
496,01	210,80
496,22	108,41
496,43	44,92
496,64	63,35
496,84	38,77
497,05	55,16
497,26	165,75
497,47	61,30
497,68	124,79
497,89	28,54
498,10	118,65
498,31	221,04
498,52	167,80
498,72	190,32
498,93	135,03
499,14	83,83
499,35	26,49
499,56	36,73
499,77	30,58
499,98	124,79
500,19	59,25
500,40	112,50
500,60	-16,52
500,81	106,36
501,02	40,82
501,23	63,35
501,44	49,01
501,65	155,51
501,86	51,06
502,06	6,01
502,27	75,64
502,48	130,93
502,69	137,08
502,90	167,80
503,11	46,97
503,32	94,07
503,53	22,39
503,73	114,55
503,94	165,75
504,15	145,27
504,36	112,50
504,57	-0,14
504,78	98,17
504,98	128,89
505,19	42,87
505,40	100,21
505,61	14,20
505,82	46,97
506,03	135,03
506,23	-10,38
506,44	112,50
506,65	165,75
506,86	59,25
507,07	22,39
507,28	34,68
507,48	67,45
507,69	122,74
507,90	57,21
508,11	14,20
508,32	98,17
508,53	-2,18
508,73	24,44
508,94	44,92
509,15	106,36
509,36	75,64
509,57	24,44
509,77	106,36
509,98	51,06
510,19	10,10
510,40	83,83
510,61	32,63
510,81	85,88
511,02	128,89
511,23	141,17
511,44	65,40
511,65	6,01
511,85	143,22
512,06	28,54
512,27	59,25
512,48	77,69
512,69	120,69
512,89	67,45
513,10	165,75
513,31	102,26
513,52	79,73
513,73	124,79
513,93	98,17
514,14	94,07
514,35	137,08
514,56	126,84
514,76	83,83
514,97	137,08
515,18	175,99
515,39	73,59
515,60	128,89
515,80	118,65
516,01	102,26
516,22	120,69
516,43	61,30
516,63	157,56
516,84	208,76
517,05	1,91
517,26	184,18
517,46	132,98
517,67	89,97
517,88	44,92
518,09	24,44
518,29	6,01
518,50	102,26
518,71	73,59
518,92	137,08
519,12	120,69
519,33	155,51
519,54	112,50
519,75	163,70
519,95	141,17
520,16	59,25
520,37	63,35
520,57	57,21
520,78	157,56
520,99	32,63
521,20	126,84
521,40	87,93
521,61	151,41
521,82	-45,19
522,03	-2,18
522,23	44,92
522,44	102,26
522,65	-22,66
522,85	85,88
523,06	24,44
523,27	26,49
523,48	122,74
523,68	30,58
523,89	114,55
524,10	30,58
524,30	-8,33
524,51	98,17
524,72	98,17
524,93	12,15
525,13	12,15
525,34	63,35
525,55	141,17
525,75	139,13
525,96	175,99
526,17	153,46
526,37	151,41
526,58	163,70
526,79	77,69
526,99	79,73
527,20	153,46
527,41	46,97
527,62	30,58
527,82	46,97
528,03	-32,90
528,24	49,01
528,44	110,45
528,65	-65,67
528,86	102,26
529,06	53,11
529,27	53,11
529,48	-12,42
529,68	165,75
529,89	130,93
530,10	94,07
530,30	36,73
530,51	77,69
530,72	116,60
530,92	75,64
531,13	57,21
531,34	135,03
531,54	89,97
531,75	126,84
531,96	188,28
532,16	92,02
532,37	157,56
532,57	130,93
532,78	55,16
532,99	106,36
533,19	149,37
533,40	157,56
533,61	51,06
533,81	137,08
534,02	55,16
534,23	38,77
534,43	38,77
534,64	112,50
534,84	83,83
535,05	55,16
535,26	96,12
535,46	128,89
535,67	108,41
535,88	40,82
536,08	12,15
536,29	71,54
536,49	22,39
536,70	34,68
536,91	46,97
537,11	147,32
537,32	61,30
537,53	147,32
537,73	161,65
537,94	36,73
538,14	85,88
538,35	22,39
538,56	110,45
538,76	98,17
538,97	100,21
539,17	-53,38
539,38	159,61
539,59	108,41
539,79	108,41
540,00	67,45
540,20	178,04
540,41	132,98
540,62	370,55
540,82	77,69
541,03	59,25
541,23	110,45
541,44	-4,23
541,64	96,12
541,85	30,58
542,06	59,25
542,26	16,25
542,47	63,35
542,67	153,46
542,88	94,07
543,08	73,59
543,29	157,56
543,50	167,80
543,70	126,84
543,91	104,31
544,11	100,21
544,32	186,23
544,52	163,70
544,73	24,44
544,94	83,83
545,14	49,01
545,35	69,49
545,55	106,36
545,76	110,45
545,96	63,35
546,17	-2,18
546,37	102,26
546,58	206,71
546,78	28,54
546,99	155,51
547,20	122,74
547,40	126,84
547,61	87,93
547,81	42,87
548,02	112,50
548,22	135,03
548,43	268,15
548,63	114,55
548,84	106,36
549,04	65,40
549,25	16,25
549,45	126,84
549,66	-0,14
549,86	120,69
550,07	28,54
550,27	49,01
550,48	159,61
550,69	118,65
550,89	204,66
551,10	126,84
551,30	130,93
551,51	92,02
551,71	104,31
551,92	124,79
552,12	89,97
552,33	65,40
552,53	51,06
552,74	126,84
552,94	141,17
553,15	32,63
553,35	249,72
553,56	128,89
553,76	118,65
553,97	73,59
554,17	1,91
554,38	204,66
554,58	96,12
554,79	44,92
554,99	57,21
555,19	14,20
555,40	110,45
555,60	165,75
555,81	57,21
556,01	65,40
556,22	157,56
556,42	112,50
556,63	6,01
556,83	79,73
557,04	59,25
557,24	214,90
557,45	198,52
557,65	71,54
557,86	106,36
558,06	147,32
558,27	173,94
558,47	67,45
558,67	237,43
558,88	75,64
559,08	116,60
559,29	135,03
559,49	212,85
559,70	139,13
559,90	61,30
560,11	85,88
560,31	114,55
560,52	141,17
560,72	114,55
560,92	171,89
561,13	98,17
561,33	157,56
561,54	151,41
561,74	216,95
561,95	128,89
562,15	257,91
562,35	132,98
562,56	163,70
562,76	130,93
562,97	161,65
563,17	147,32
563,38	98,17
563,58	145,27
563,78	180,08
563,99	112,50
564,19	12,15
564,40	165,75
564,60	171,89
564,80	206,71
565,01	161,65
565,21	229,24
565,42	227,19
565,62	202,61
565,83	223,09
566,03	169,84
566,23	180,08
566,44	169,84
566,64	180,08
566,85	161,65
567,05	145,27
567,25	182,13
567,46	194,42
567,66	204,66
567,86	204,66
568,07	161,65
568,27	169,84
568,48	114,55
568,68	225,14
568,88	157,56
569,09	149,37
569,29	165,75
569,50	143,22
569,70	227,19
569,90	229,24
570,11	186,23
570,31	165,75
570,51	280,44
570,72	251,76
570,92	173,94
571,13	210,80
571,33	188,28
571,53	243,57
571,74	221,04
571,94	272,24
572,14	206,71
572,35	145,27
572,55	227,19
572,75	192,37
572,96	305,01
573,16	300,91
573,36	204,66
573,57	249,72
573,77	212,85
573,97	202,61
574,18	167,80
574,38	210,80
574,59	360,31
574,79	257,91
574,99	210,80
575,20	284,53
575,40	169,84
575,60	235,38
575,81	325,49
576,01	264,05
576,21	186,23
576,42	221,04
576,62	216,95
576,82	200,56
577,02	235,38
577,23	221,04
577,43	350,07
577,63	239,48
577,84	182,13
578,04	233,33
578,24	180,08
578,45	198,52
578,65	137,08
578,85	196,47
579,06	319,35
579,26	345,97
579,46	155,51
579,67	345,97
579,87	380,79
580,07	307,06
580,27	223,09
580,48	259,96
580,68	343,92
580,88	374,64
581,09	278,39
581,29	264,05
581,49	343,92
581,69	116,60
581,90	272,24
582,10	243,57
582,30	354,16
582,51	302,96
582,71	210,80
582,91	257,91
583,11	284,53
583,32	280,44
583,52	302,96
583,72	321,39
583,93	360,31
584,13	309,11
584,33	298,87
584,53	325,49
584,74	288,63
584,94	198,52
585,14	327,54
585,34	356,21
585,55	305,01
585,75	415,60
585,95	307,06
586,15	257,91
586,36	386,93
586,56	386,93
586,76	474,99
586,96	331,63
587,17	354,16
587,37	397,17
587,57	386,93
587,77	364,40
587,98	368,50
588,18	380,79
588,38	345,97
588,58	454,51
588,79	458,61
588,99	253,81
589,19	360,31
589,39	520,05
589,60	413,55
589,80	513,90
590,00	546,67
590,20	538,48
590,40	444,27
590,61	487,28
590,81	413,55
591,01	462,70
591,21	520,05
591,42	505,71
591,62	417,65
591,82	526,19
592,02	595,82
592,22	589,68
592,43	548,72
592,63	606,06
592,83	665,45
593,03	597,87
593,23	616,30
593,44	685,93
593,64	606,06
593,84	597,87
594,04	716,65
594,24	552,82
594,45	601,97
594,65	616,30
594,85	685,93
595,05	589,68
595,25	606,06
595,46	751,47
595,66	702,32
595,86	778,09
596,06	622,45
596,26	687,98
596,46	718,70
596,67	724,84
596,87	663,41
597,07	847,72
597,27	749,42
597,47	747,37
597,67	835,43
597,88	862,06
598,08	841,58
598,28	872,30
598,48	864,11
598,68	1032,04
598,88	970,60
599,09	1019,75
599,29	950,12
599,49	954,22
599,69	1044,33
599,89	960,36
600,09	1079,14
600,30	1103,72
600,50	1101,67
600,70	1138,53
600,90	1027,94
601,10	1218,40
601,30	1189,73
601,50	1122,15
601,71	1238,88
601,91	1265,51
602,11	1161,06
602,31	1218,40
602,51	1234,79
602,71	1173,35
602,91	1277,80
603,11	1331,04
603,32	1372,00
603,52	1441,63
603,72	1365,86
603,92	1322,85
604,12	1372,00
604,32	1431,39
604,52	1484,64
604,72	1458,02
604,93	1476,45
605,13	1492,83
605,33	1638,24
605,53	1603,42
605,73	1429,35
605,93	1750,88
606,13	1599,33
606,33	1740,64
606,53	1812,32
606,74	1804,12
606,94	1840,99
607,14	1824,60
607,34	1761,12
607,54	1855,32
607,74	1904,47
607,94	1933,15
608,14	2019,16
608,34	1994,59
608,54	2094,94
608,74	2105,18
608,95	2025,30
609,15	2084,70
609,35	2142,04
609,55	2150,23
609,75	2183,00
609,95	2320,21
610,15	2137,94
610,35	2299,73
610,55	2471,76
610,75	2408,27
610,95	2361,17
611,15	2475,86
611,35	2555,73
611,55	2670,41
611,76	2537,30
611,96	2686,80
612,16	2709,33
612,36	2764,62
612,56	2776,91
612,76	2883,40
612,96	2776,91
613,16	2977,61
613,36	3000,14
613,56	3041,10
613,76	2887,50
613,96	3092,30
614,16	3141,45
614,36	3176,26
614,56	3321,67
614,76	3223,37
614,96	3370,82
615,16	3297,09
615,36	3362,63
615,56	3432,26
615,76	3442,50
615,97	3532,61
616,17	3467,07
616,37	3508,03
616,57	3622,72
616,77	3680,06
616,97	3929,92
617,17	3751,74
617,37	3897,15
617,57	3891,00
617,77	4177,72
617,97	4065,08
618,17	4071,23
618,37	4194,10
618,57	4218,68
618,77	4269,88
618,97	4314,93
619,17	4568,88
619,37	4421,43
619,57	4482,87
619,77	4486,96
619,97	4591,41
620,17	4697,90
620,37	4685,62
620,57	4820,78
620,77	4843,31
620,97	4931,37
621,17	5023,53
621,37	5062,44
621,57	4980,52
621,77	5242,66
621,97	5361,45
622,17	5349,16
622,37	5519,14
622,57	5607,20
622,77	5689,12
622,97	5644,07
623,17	5764,90
623,37	5943,07
623,57	5938,97
623,77	5805,85
623,97	5785,38
624,16	5918,49
624,36	6221,59
624,56	6115,10
624,76	6250,26
624,96	6237,98
625,16	6614,80
625,36	6410,01
625,56	6641,43
625,76	6780,69
625,96	6878,99
626,16	6946,57
626,36	6973,20
626,56	7190,28
626,76	7169,80
626,96	7270,15
627,16	7196,43
627,36	7341,83
627,56	7438,09
627,76	7448,33
627,96	7552,77
628,16	7776,00
628,35	7923,45
628,55	7722,75
628,75	8058,62
628,95	8044,28
629,15	8300,28
629,35	8206,07
629,55	8376,06
629,75	8337,14
629,95	8513,27
630,15	8546,04
630,35	8574,71
630,55	8963,82
630,75	8836,85
630,95	9133,80
631,14	8996,59
631,34	9279,21
631,54	9441,00
631,74	9537,25
631,94	9672,42
632,14	9576,17
632,34	9545,45
632,54	9737,95
632,74	9916,13
632,94	10039,01
633,14	10419,93
633,33	10319,58
633,53	10481,37
633,73	10839,76
633,93	10817,23
634,13	10819,28
634,33	11103,95
634,53	11077,33
634,73	11202,25
634,93	11144,91
635,12	11441,86
635,32	11480,78
635,52	11617,99
635,72	11409,10
635,92	11910,85
636,12	12125,89
636,32	12074,69
636,52	12316,35
636,71	12172,99
636,91	12465,85
637,11	12621,49
637,31	12693,17
637,51	13029,04
637,71	13227,69
637,91	13090,48
638,11	13246,13
638,30	13244,08
638,50	13510,31
638,70	13792,93
638,90	13815,46
639,10	13725,35
639,30	13786,79
639,50	14028,45
639,69	14343,84
639,89	14454,43
640,09	14440,09
640,29	14710,42
640,49	14798,49
640,69	14874,26
640,88	14806,68
641,08	14990,99
641,28	15421,07
641,48	15414,92
641,68	15613,58
641,88	15505,03
642,07	15527,56
642,27	16131,71
642,47	16137,86
642,67	16455,29
642,87	16576,12
643,07	16559,74
643,26	16610,94
643,46	16930,42
643,66	17041,01
643,86	17071,73
644,06	17284,72
644,26	17469,04
644,45	17778,28
644,65	17786,47
644,85	17864,29
645,05	18138,72
645,25	18044,52
645,44	18663,00
645,64	18343,52
645,84	18677,34
646,04	18777,69
646,24	18910,81
646,43	19177,04
646,63	19385,94
646,83	19410,51
647,03	19725,90
647,23	19846,73
647,42	20110,92
647,62	20014,66
647,82	20350,53
648,02	20278,85
648,22	20411,97
648,41	20665,92
648,61	20825,66
648,81	21016,12
649,01	21243,44
649,20	21380,66
649,40	21112,37
649,60	21855,79
649,80	21335,60
650,00	21972,52
650,19	21984,81
650,39	22216,23
650,59	22550,05
650,79	22605,34
650,98	22832,67
651,18	22961,69
651,38	22988,31
651,58	23174,68
651,77	23377,43
651,97	23477,78
652,17	23608,85
652,37	23586,32
652,56	24002,06
652,76	24022,54
652,96	24256,01
653,16	24528,39
653,35	24800,77
653,55	24512,00
653,75	24790,53
653,95	25230,84
654,14	25015,80
654,34	25265,65
654,54	25988,59
654,74	25945,58
654,93	25986,54
655,13	26557,92
655,33	26162,66
655,52	26480,10
655,72	26658,27
655,92	26807,77
656,12	26590,69
656,31	27014,62
656,51	27239,90
656,71	27241,94
656,91	27493,84
657,10	27733,46
657,30	28009,93
657,50	27809,23
657,69	28044,75
657,89	28485,06
658,09	28419,53
658,29	28476,87
658,48	29009,34
658,68	28888,51
658,88	29388,22
659,07	29724,08
659,27	29543,86
659,47	29502,90
659,66	29554,10
659,86	29867,44
660,06	30258,60
660,26	30092,72
660,45	30303,66
660,65	30690,72
660,85	30870,94
661,04	31147,42
661,24	31262,11
661,44	30881,18
661,63	31417,75
661,83	31681,94
662,03	31427,99
662,22	31489,43
662,42	32003,47
662,62	31843,73
662,81	32200,08
663,01	32193,93
663,21	32406,92
663,40	32595,33
663,60	32937,34
663,80	32726,40
663,99	33109,37
664,19	33314,17
664,39	33310,08
664,58	33406,33
664,78	33820,02
664,98	33668,47
665,17	33942,90
665,37	34090,35
665,57	34383,21
665,76	34209,13
665,96	34837,86
666,16	34805,09
666,35	34860,39
666,55	34600,30
666,74	35016,03
666,94	35196,25
667,14	35196,25
667,33	35693,91
667,53	35659,10
667,73	35804,50
667,92	36113,74
668,12	36154,70
668,32	36539,72
668,51	36216,14
668,71	36543,82
668,90	36408,65
669,10	36765,00
669,30	36754,76
669,49	36928,84
669,69	36896,07
669,89	37252,42
670,08	37283,13
670,28	37887,29
670,47	37705,02
670,67	37672,25
670,87	37489,98
671,06	38038,84
671,26	37993,78
671,45	38356,27
671,65	38473,00
671,85	38440,24
672,04	38542,64
672,24	38458,67
672,43	38495,53
672,63	38741,29
672,83	38886,69
673,02	39025,96
673,22	38972,71
673,41	39195,94
673,61	39255,33
673,81	39478,56
674,00	39632,15
674,20	39836,95
674,39	39886,10
674,59	39623,96
674,78	39789,85
674,98	39882,01
675,18	39929,11
675,37	40416,53
675,57	40090,90
675,76	40316,18
675,96	40437,01
676,15	40654,09
676,35	40887,56
676,55	40973,57
676,74	41159,94
676,94	40762,63
677,13	40942,85
677,33	41364,74
677,52	41233,67
677,72	41342,21
677,91	41379,07
678,11	41661,69
678,31	41620,73
678,50	41903,35
678,70	41637,12
678,89	41749,75
679,09	41893,11
679,28	41921,78
679,48	41884,92
679,67	42253,55
679,87	42317,04
680,06	42532,08
680,26	42466,54
680,46	42693,87
680,65	42255,60
680,85	42710,25
681,04	42876,14
681,24	42591,47
681,43	42611,95
681,63	42226,93
681,82	43171,04
682,02	42775,79
682,21	42464,50
682,41	42853,61
682,60	43193,57
682,80	43390,18
682,99	43171,04
683,19	43306,21
683,38	43584,73
683,58	43070,69
683,77	43359,46
683,97	43607,26
684,16	43291,87
684,36	43336,93
684,55	43484,38
684,75	43879,64
684,94	43707,61
685,14	44199,13
685,33	43844,83
685,53	43918,55
685,72	43803,87
685,92	44049,62
686,11	43900,12
686,31	43680,99
686,50	44141,78
686,70	44111,06
686,89	44211,41
687,09	44043,48
687,28	43955,42
687,48	43881,69
687,67	44365,01
687,87	43738,33
688,06	44201,17
688,26	44600,53
688,45	44322,00
688,65	44448,98
688,84	44098,77
689,03	44080,34
689,23	43707,61
689,42	44475,60
689,62	44149,97
689,81	44322,00
690,01	44358,87
690,20	44109,01
690,40	44477,65
690,59	44332,24
690,79	43695,32
690,98	44397,78
691,17	44690,64
691,37	43986,14
691,56	44166,36
691,76	44461,27
691,95	44029,14
692,15	44653,77
692,34	44496,08
692,54	43912,41
692,73	44383,44
692,92	44479,70
693,12	44184,79
693,31	44172,50
693,51	44604,62
693,70	44147,93
693,90	44023,00
694,09	44031,19
694,28	44256,47
694,48	44219,60
694,67	44516,56
694,87	44340,43
695,06	44279,00
695,26	44424,40
695,45	44287,19
695,64	44627,15
695,84	44127,45
696,03	44207,32
696,23	44061,91
696,42	43957,46
696,61	43957,46
696,81	44190,93
697,00	43642,08
697,20	43963,61
697,39	43418,85
697,58	43869,40
697,78	43644,13
697,97	43922,65
698,17	43711,71
698,36	43570,40
698,55	43480,29
698,75	43080,93
698,94	43660,51
699,14	43265,25
699,33	43676,89
699,52	43222,24
699,72	43336,93
699,91	43199,72
700,10	43164,90
700,30	43035,88
700,49	42923,24
700,69	42992,87
700,88	42941,67
701,07	42829,03
701,27	42628,33
701,46	42851,56
701,65	42732,78
701,85	42992,87
702,04	42562,80
702,23	42704,11
702,43	42888,43
702,62	42214,64
702,82	42474,74
703,01	42839,27
703,20	42276,08
703,40	42020,09
703,59	42159,35
703,78	41972,98
703,98	42312,95
704,17	41944,31
704,36	41948,41
704,56	41680,12
704,75	41114,88
704,94	41788,67
705,14	41647,36
705,33	41301,25
705,52	41225,47
705,72	41266,43
705,91	40987,91
706,10	40830,22
706,30	41057,54
706,49	41096,45
706,68	41196,80
706,88	40944,90
707,07	40770,83
707,26	40523,02
707,46	40682,76
707,65	40355,09
707,84	40090,90
708,04	39925,01
708,23	40248,59
708,42	39992,60
708,62	40363,28
708,81	39716,12
709,00	39386,40
709,19	39482,65
709,39	39652,63
709,58	39998,74
709,77	39073,06
709,97	39456,03
710,16	39130,40
710,35	39468,32
710,55	38823,21
710,74	39214,37
710,93	39169,31
711,12	38866,21
711,32	38759,72
711,51	38888,74
711,70	38405,42
711,90	38591,79
712,09	38567,21
712,28	38391,09
712,47	37735,74
712,67	37819,70
712,86	37721,40
713,05	37711,16
713,24	38006,07
713,44	37745,98
713,63	37559,61
713,82	37172,54
714,02	37477,69
714,21	37020,99
714,40	37217,60
714,59	36982,08
714,79	36818,25
714,98	36681,03
715,17	36842,82
715,36	36670,79
715,56	36506,95
715,75	35958,10
715,94	36382,03
716,13	36203,86
716,33	35986,77
716,52	35951,95
716,71	35859,80
716,90	35798,36
717,10	35419,48
717,29	35822,93
717,48	35466,59
717,67	35282,27
717,87	35073,38
718,06	35513,69
718,25	34844,00
718,44	34647,40
718,63	34819,43
718,83	34739,56
719,02	34342,25
719,21	34268,52
719,40	33949,04
719,60	33848,69
719,79	34153,84
719,98	34057,58
720,17	34217,33
720,36	33242,49
720,56	33418,62
720,75	33363,32
720,94	33088,89
721,13	33326,46
721,33	32859,52
721,52	32914,82
721,71	32857,47
721,90	32775,56
722,09	32413,06
722,29	32028,05
722,48	32095,63
722,67	32079,25
722,86	32263,56
723,05	31956,37
723,24	31815,06
723,44	31473,05
723,63	31413,66
723,82	31640,98
724,01	31049,12
724,20	31292,83
724,40	30776,74
724,59	30563,75
724,78	30760,35
724,97	30627,24
725,16	30754,21
725,35	30500,26
725,55	30047,66
725,74	29994,41
725,93	30170,54
726,12	29908,40
726,31	29769,14
726,51	29851,06
726,70	29808,05
726,89	29281,72
727,08	29480,37
727,27	29015,48
727,46	29085,12
727,65	29146,55
727,85	29179,32
728,04	28646,85
728,23	28667,33
728,42	28429,77
728,61	28276,17
728,80	28202,44
729,00	28042,70
729,19	28261,83
729,38	27958,73
729,57	27876,81
729,76	27657,68
729,95	27545,04
730,14	27882,96
730,33	27184,60
730,53	27213,27
730,72	27057,63
730,91	26871,26
731,10	26787,29
731,29	26699,23
731,48	26586,59
731,67	26484,20
731,86	26619,36
732,06	26476,00
732,25	26256,87
732,44	26263,01
732,63	25722,35
732,82	26041,83
733,01	25970,16
733,20	25605,62
733,39	25374,20
733,59	25294,33
733,78	25083,38
733,97	25279,99
734,16	25200,12
734,35	25083,38
734,54	24690,17
734,73	24530,43
734,92	24274,44
735,11	24430,08
735,30	23924,23
735,49	23987,72
735,69	24016,39
735,88	24106,50
736,07	24018,44
736,26	23911,95
736,45	23641,61
736,64	23189,01
736,83	23485,97
737,02	23115,29
737,21	22859,29
737,40	22734,36
737,59	23254,55
737,78	22793,76
737,98	22357,54
738,17	22404,64
738,36	22591,01
738,55	22353,44
738,74	22095,40
738,93	22173,22
739,12	21956,14
739,31	22033,96
739,50	21587,50
739,69	22048,30
739,88	21337,65
740,07	21610,03
740,26	21108,28
740,45	21108,28
740,64	21030,45
740,83	20905,53
741,02	20926,01
741,22	20950,58
741,41	20962,87
741,60	20536,89
741,79	20633,15
741,98	20522,56
742,17	20190,79
742,36	20264,51
742,55	20192,84
742,74	20379,20
742,93	19949,13
743,12	19707,47
743,31	19648,08
743,50	19416,66
743,69	19492,43
743,88	19371,60
744,07	19138,13
744,26	19134,04
744,45	18902,62
744,64	19160,66
744,83	18675,29
745,02	18697,82
745,21	18718,30
745,40	18542,17
745,59	18538,08
745,78	18327,14
745,97	18355,81
746,16	18290,27
746,35	18198,11
746,54	17825,38
746,73	17696,36
746,92	17622,63
747,11	17813,10
747,30	17370,73
747,49	17573,48
747,68	17522,28
747,87	17165,94
748,06	17413,74
748,25	17016,44
748,44	17206,90
748,63	16963,19
748,82	16639,61
749,01	16754,30
749,20	16744,06
749,39	16565,88
749,58	16621,18
749,77	16737,91
749,96	16275,07
750,15	16223,87
750,34	16115,33
750,53	16141,95
750,72	16057,99
750,91	15908,48
751,10	15873,67
751,29	15879,81
751,48	15535,75
751,67	15470,22
751,86	15654,54
752,04	15412,88
752,23	15470,22
752,42	15253,13
752,61	15326,86
752,80	15267,47
752,99	14890,64
753,18	14810,77
753,37	14704,28
753,56	14665,37
753,75	14618,26
753,94	14450,33
754,13	14608,02
754,32	14399,13
754,51	14431,90
754,70	14296,73
754,89	14259,87
755,08	14136,99
755,27	14091,94
755,45	14419,61
755,64	13932,19
755,83	13772,45
756,02	13807,27
756,21	13723,30
756,40	13629,10
756,59	13459,11
756,78	13635,24
756,97	13336,24
757,16	13389,48
757,35	13588,14
757,54	13266,61
757,72	13213,36
757,91	13088,43
758,10	13182,64
758,29	12760,76
758,48	12674,74
758,67	12717,75
758,86	12545,72
759,05	12592,82
759,24	12523,19
759,43	12324,54
759,61	12340,92
759,80	12388,03
759,99	12209,85
760,18	12142,27
760,37	12154,56
760,56	11910,85
760,75	12005,06
760,94	12027,58
761,13	11751,11
761,31	11935,43
761,50	11617,99
761,69	11878,08
761,88	11761,35
762,07	11435,72
762,26	11550,41
762,45	11507,40
762,64	11087,57
762,82	11187,92
763,01	11296,46
763,20	11138,77
763,39	11230,92
763,58	11065,04
763,77	10874,58
763,96	10940,11
764,14	10837,71
764,33	10632,92
764,52	10651,35
764,71	10757,84
764,90	10399,45
765,09	10395,35
765,27	10493,66
765,46	10295,00
765,65	10434,26
765,84	10245,85
766,03	10247,90
766,22	10110,69
766,41	10053,34
766,59	10176,22
766,78	9928,42
766,97	9862,88
767,16	9852,64
767,35	9809,63
767,54	9866,98
767,72	9703,14
767,91	9463,53
768,10	9524,97
768,29	9371,37
768,48	9494,25
768,66	9406,18
768,85	9242,35
769,04	9211,63
769,23	9225,96
769,42	9498,34
769,61	9305,83
769,79	9193,20
769,98	8953,58
770,17	9064,17
770,36	9158,38
770,55	8830,70
770,73	8828,66
770,92	8730,35
771,11	8693,49
771,30	8797,94
771,49	8857,33
771,67	8822,51
771,86	8439,54
772,05	8642,29
772,24	8318,71
772,42	8355,58
772,61	8146,68
772,80	8058,62
772,99	8472,31
773,18	8367,86
773,36	8167,16
773,55	8062,72
773,74	8206,07
773,93	7808,77
774,11	7827,20
774,30	8152,83
774,49	7874,30
774,68	8019,71
774,87	7880,45
775,05	7843,58
775,24	7905,02
775,43	7706,37
775,62	7771,90
775,80	7569,16
775,99	7552,77
776,18	7616,26
776,37	7413,51
776,55	7423,75
776,74	7350,02
776,93	7151,37
777,12	7077,64
777,30	7319,30
777,49	7116,55
777,68	7276,30
777,87	7261,96
778,05	6997,77
778,24	7231,24
778,43	6907,66
778,62	7165,71
778,80	7061,26
778,99	6995,72
779,18	6860,56
779,36	7034,64
779,55	6606,61
779,74	6739,73
779,93	6817,55
780,11	6709,01
780,30	6616,85
780,49	6688,53
780,68	6502,16
780,86	6631,19
781,05	6561,56
781,24	6520,60
781,42	6471,44
781,61	6444,82
781,80	6254,36
781,98	6283,03
782,17	6244,12
782,36	6237,98
782,55	6201,11
782,73	6086,43
782,92	6315,80
783,11	6233,88
783,29	6178,59
783,48	6063,90
783,67	6141,72
783,85	5938,97
784,04	6027,04
784,23	6074,14
784,42	6072,09
784,60	5914,40
784,79	5920,54
784,98	5738,27
785,16	5768,99
785,35	5762,85
785,54	5619,49
785,72	5713,70
785,91	5664,55
786,10	5562,15
786,28	5668,64
786,47	5539,62
786,66	5648,16
786,84	5648,16
787,03	5658,40
787,22	5467,94
787,40	5547,81
787,59	5424,93
787,78	5244,71
787,96	5381,93
788,15	5451,56
788,34	5338,92
788,52	5404,45
788,71	5492,52
788,89	5109,55
789,08	5195,56
789,27	5433,12
789,45	5375,78
789,64	5240,62
789,83	5160,74
790,01	5263,14
790,20	5316,39
790,39	5234,47
790,57	5130,03
790,76	5160,74
790,95	5003,05
791,13	5109,55
791,32	5175,08
791,50	4992,81
791,69	4992,81
791,88	4982,57
792,06	5005,10
792,25	5039,91
792,43	5066,54
792,62	5166,89
792,81	4736,82
792,99	4978,48
793,18	4876,08
793,37	4876,08
793,55	4923,18
793,74	4919,08
793,92	4837,17
794,11	4804,40
794,30	4611,89
794,48	4712,24
794,67	4634,42
794,85	4615,99
795,04	4677,42
795,23	4652,85
795,41	4695,86
795,60	4679,47
795,78	4587,31
795,97	4837,17
796,15	4697,90
796,34	4622,13
796,53	4413,24
796,71	4572,98
796,90	4532,02
797,08	4452,15
797,27	4540,21
797,46	4431,67
797,64	4359,99
797,83	4421,43
798,01	4271,93
798,20	4480,82
798,38	4384,56
798,57	4237,11
798,76	4167,48
798,94	4245,30
799,13	4190,01
799,31	4298,55
799,50	4226,87
799,68	4251,45
799,87	4218,68
800,05	4116,28
800,24	4157,24
800,43	4069,18
800,61	4292,41
800,80	4247,35
800,98	4110,14
801,17	4147,00
801,35	4103,99
801,54	4085,56
801,72	4060,99
801,91	4194,10
802,09	3997,50
802,28	3901,24
802,46	4060,99
802,65	4083,51
802,84	3938,11
803,02	4013,88
803,21	3802,94
803,39	4003,64
803,58	3979,07
803,76	4124,47
803,95	3819,33
804,13	3802,94
804,32	3710,78
804,50	3798,85
804,69	3897,15
804,87	3690,30
805,06	3790,65
805,24	3733,31
805,43	3641,15
805,61	3862,33
805,80	3821,37
805,98	3653,44
806,17	3854,14
806,35	3551,04
806,54	3651,39
806,72	3671,87
806,91	3624,77
807,09	3655,49
807,28	3675,97
807,46	3665,73
807,65	3477,31
807,83	3450,69
808,02	3356,48
808,20	3450,69
808,39	3462,98
808,57	3462,98
808,76	3383,11
808,94	3362,63
809,13	3407,68
809,31	3424,07
809,49	3440,45
809,68	3385,16
809,86	3219,27
810,05	3315,52
810,23	3342,15
810,42	3344,20
810,60	3379,01
810,79	3247,94
810,97	3157,83
811,16	3168,07
811,34	3301,19
811,53	3245,89
811,71	3155,78
811,89	3141,45
812,08	3366,72
812,26	3112,78
812,45	3055,43
812,63	3045,19
812,82	3145,54
813,00	3155,78
813,19	2975,56
813,37	3092,30
813,55	2975,56
813,74	2873,16
813,92	2910,03
814,11	2987,85
814,29	2916,17
814,48	2938,70
814,66	2910,03
814,84	3034,95
815,03	2918,22
815,21	2946,89
815,40	2916,17
815,58	2948,94
815,77	2873,16
815,95	2883,40
816,13	2750,29
816,32	2932,55
816,50	2903,88
816,69	2791,24
816,87	2735,95
817,05	2744,14
817,24	2746,19
817,42	2705,23
817,61	2688,85
817,79	2776,91
817,97	2801,48
818,16	2727,76
818,34	2819,92
818,53	2666,32
818,71	2625,36
818,89	2594,64
819,08	2672,46
819,26	2781,01
819,45	2584,40
819,63	2649,94
819,81	2529,10
820,00	2746,19
820,18	2668,37
820,36	2721,61
820,55	2500,43
820,73	2436,95
820,92	2455,38
821,10	2453,33
821,28	2477,91
821,47	2570,06
821,65	2533,20
821,83	2727,76
822,02	2424,66
822,20	2527,06
822,39	2424,66
822,57	2373,46
822,75	2324,31
822,94	2381,65
823,12	2226,01
823,30	2281,30
823,49	2477,91
823,67	2244,44
823,85	2428,75
824,04	2303,83
824,22	2342,74
824,40	2361,17
824,59	2305,88
824,77	2328,40
824,95	2209,62
825,14	2367,32
825,32	2289,49
825,50	2236,25
825,69	2176,85
825,87	2309,97
826,05	2277,20
826,24	2232,15
826,42	2332,50
826,60	2264,92
826,79	2094,94
826,97	2160,47
827,15	2086,74
827,34	2043,74
827,52	1994,59
827,70	2193,24
827,89	2035,54
828,07	2103,13
828,25	1945,43
828,44	2150,23
828,62	2088,79
828,80	2174,81
828,98	2109,27
829,17	2023,26
829,35	1967,96
829,53	1906,52
829,72	2017,11
829,90	2021,21
830,08	2000,73
830,27	1916,76
830,45	2045,78
830,63	2027,35
830,81	1947,48
831,00	2002,78
831,18	1791,84
831,36	1826,65
831,55	1806,17
831,73	1769,31
831,91	1853,28
832,09	1988,44
832,28	1982,30
832,46	1888,09
832,64	1806,17
832,82	1797,98
833,01	1828,70
833,19	1865,56
833,37	1795,93
833,55	1797,98
833,74	1935,19
833,92	1771,36
834,10	1808,22
834,29	1646,43
834,47	1718,11
834,65	1732,45
834,83	1666,91
835,02	1767,26
835,20	1642,33
835,38	1804,12
835,56	1754,97
835,75	1744,73
835,93	1742,68
836,11	1654,62
836,29	1785,69
836,47	1625,95
836,66	1769,31
836,84	1812,32
837,02	1679,20
837,20	1668,96
837,39	1783,64
837,57	1718,11
837,75	1603,42
837,93	1625,95
838,12	1548,13
838,30	1623,90
838,48	1621,85
838,66	1679,20
838,84	1546,08
839,03	1689,44
839,21	1464,16
839,39	1644,38
839,57	1691,49
839,75	1605,47
839,94	1580,90
840,12	1566,56
840,30	1525,60
840,48	1541,98
840,66	1628,00
840,85	1509,22
841,03	1531,74
841,21	1558,37
841,39	1722,21
841,57	1511,26
841,76	1668,96
841,94	1615,71
842,12	1464,16
842,30	1482,59
842,48	1617,76
842,67	1513,31
842,85	1380,19
843,03	1484,64
843,21	1584,99
843,39	1578,85
843,57	1406,82
843,76	1374,05
843,94	1484,64
844,12	1480,54
844,30	1372,00
844,48	1433,44
844,66	1478,50
844,85	1458,02
845,03	1365,86
845,21	1410,91
845,39	1517,41
845,57	1339,24
845,75	1343,33
845,94	1404,77
846,12	1435,49
846,30	1503,07
846,48	1408,87
846,66	1341,28
846,84	1302,37
847,02	1265,51
847,21	1253,22
847,39	1355,62
847,57	1384,29
847,75	1240,93
847,93	1181,54
848,11	1296,23
848,29	1249,12
848,48	1236,84
848,66	1267,56
848,84	1351,52
849,02	1310,56
849,20	1253,22
849,38	1263,46
849,56	1290,08
849,74	1187,69
849,93	1363,81
850,11	1343,33
850,29	1288,04
850,47	1329,00
850,65	1253,22
850,83	1161,06
851,01	1314,66
851,19	1261,41
851,37	1267,56
851,56	1148,77
851,74	1240,93
851,92	1169,25
852,10	1187,69
852,28	1183,59
852,46	1171,30
852,64	1165,16
852,82	1169,25
853,00	1226,60
853,18	1159,01
853,37	1232,74
853,55	1138,53
853,73	1187,69
853,91	1144,68
854,09	1083,24
854,27	1154,92
854,45	1163,11
854,63	1185,64
854,81	1066,86
854,99	1073,00
855,17	1111,91
855,35	1081,19
855,53	1199,97
855,72	1036,14
855,90	1156,97
856,08	1236,84
856,26	1075,05
856,44	1156,97
856,62	925,55
856,80	1120,10
856,98	1107,81
857,16	1101,67
857,34	1103,72
857,52	1093,48
857,70	1052,52
857,88	1060,71
858,06	1111,91
858,24	1173,35
858,42	1144,68
858,60	1050,47
858,78	1073,00
858,96	1048,42
859,15	980,84
859,33	1029,99
859,51	1023,85
859,69	1083,24
859,87	1019,75
860,05	1007,46
860,23	966,50
860,41	993,13
860,59	1038,18
860,77	1142,63
860,95	1073,00
861,13	950,12
861,31	991,08
861,49	962,41
861,67	1101,67
861,85	950,12
862,03	1058,66
862,21	911,21
862,39	974,70
862,57	1027,94
862,75	921,45
862,93	866,15
863,11	1023,85
863,29	788,33
863,47	954,22
863,65	939,88
863,83	892,78
864,01	939,88
864,19	876,39
864,37	974,70
864,55	851,82
864,73	950,12
864,91	849,77
865,09	976,74
865,27	864,11
865,45	954,22
865,63	872,30
865,81	915,31
865,99	898,92
866,17	964,46
866,35	888,68
866,53	970,60
866,71	823,15
866,89	907,11
867,07	896,87
867,24	907,11
867,42	864,11
867,60	925,55
867,78	900,97
867,96	855,91
868,14	829,29
868,32	1015,66
868,50	855,91
868,68	831,34
868,86	909,16
869,04	966,50
869,22	771,95
869,40	857,96
869,58	743,28
869,76	708,46
869,94	683,89
870,12	808,81
870,30	835,43
870,48	730,99
870,66	778,09
870,83	837,48
871,01	833,39
871,19	745,32
871,37	835,43
871,55	657,26
871,73	776,04
871,91	761,71
872,09	898,92
872,27	778,09
872,45	730,99
872,63	708,46
872,81	798,57
872,98	845,67
873,16	835,43
873,34	786,28
873,52	778,09
873,70	806,76
873,88	776,04
874,06	649,07
874,24	747,37
874,42	663,41
874,60	675,69
874,78	765,80
874,95	778,09
875,13	788,33
875,31	769,90
875,49	763,76
875,67	692,08
875,85	755,56
876,03	788,33
876,21	743,28
876,39	692,08
876,56	679,79
876,74	661,36
876,92	677,74
877,10	771,95
877,28	694,12
877,46	761,71
877,64	720,75
877,82	808,81
877,99	640,88
878,17	673,65
878,35	751,47
878,53	726,89
878,71	786,28
878,89	649,07
879,07	724,84
879,24	665,45
879,42	741,23
879,60	737,13
879,78	726,89
879,96	661,36
880,14	765,80
880,32	561,01
880,49	634,73
880,67	698,22
880,85	720,75
881,03	692,08
881,21	675,69
881,39	608,11
881,56	587,63
881,74	585,58
881,92	681,84
882,10	581,49
882,28	644,97
882,46	665,45
882,63	712,56
882,81	567,15
882,99	587,63
883,17	665,45
883,35	610,16
883,52	788,33
883,70	630,64
883,88	638,83
884,06	681,84
884,24	606,06
884,42	700,27
884,59	663,41
884,77	632,69
884,95	626,54
885,13	690,03
885,31	673,65
885,48	661,36
885,66	696,17
885,84	671,60
886,02	638,83
886,20	730,99
886,37	649,07
886,55	565,10
886,73	610,16
886,91	591,73
887,08	667,50
887,26	661,36
887,44	638,83
887,62	558,96
887,80	714,60
887,97	626,54
888,15	753,52
888,33	522,10
888,51	608,11
888,68	589,68
888,86	511,86
889,04	561,01
889,22	612,21
889,40	634,73
889,57	593,77
889,75	636,78
889,93	632,69
890,11	647,02
890,28	575,34
890,46	542,58
890,64	573,29
890,82	726,89
890,99	624,49
891,17	536,43
891,35	626,54
891,53	569,20
891,70	534,38
891,88	530,29
892,06	583,53
892,24	577,39
892,41	597,87
892,59	501,62
892,77	513,90
892,94	612,21
893,12	552,82
893,30	532,34
893,48	565,10
893,65	561,01
893,83	620,40
894,01	546,67
894,19	532,34
894,36	685,93
894,54	493,42
894,72	642,93
894,89	470,90
895,07	495,47
895,25	542,58
895,43	442,22
895,60	599,92
895,78	604,01
895,96	538,48
896,13	542,58
896,31	622,45
896,49	665,45
896,66	485,23
896,84	642,93
897,02	524,14
897,20	601,97
897,37	477,04
897,55	450,42
897,73	620,40
897,90	550,77
898,08	608,11
898,26	636,78
898,43	614,25
898,61	595,82
898,79	565,10
898,96	530,29
899,14	499,57
899,32	575,34
899,49	577,39
899,67	524,14
899,85	616,30
900,02	653,17
900,20	554,86
900,38	550,77
900,55	673,65
900,73	616,30
900,91	405,36
901,08	644,97
901,26	499,57
901,44	540,53
901,61	556,91
901,79	583,53
901,97	589,68
902,14	526,19
902,32	630,64
902,50	509,81
902,67	468,85
902,85	589,68
903,02	538,48
903,20	515,95
903,38	518,00
903,55	474,99
903,73	536,43
903,91	591,73
904,08	618,35
904,26	520,05
904,44	663,41
904,61	513,90
904,79	491,38
904,96	520,05
905,14	507,76
905,32	499,57
905,49	444,27
905,67	472,94
905,84	458,61
906,02	538,48
906,20	464,75
906,37	700,27
906,55	466,80
906,73	577,39
906,90	491,38
907,08	501,62
907,25	425,84
907,43	579,44
907,61	499,57
907,78	438,13
907,96	425,84
908,13	561,01
908,31	606,06
908,48	456,56
908,66	503,66
908,84	487,28
909,01	589,68
909,19	585,58
909,36	442,22
909,54	493,42
909,72	489,33
909,89	391,03
910,07	454,51
910,24	528,24
910,42	608,11
910,59	423,79
910,77	431,98
910,95	436,08
911,12	515,95
911,30	421,75
911,47	483,18
911,65	518,00
911,82	411,51
912,00	440,18
912,17	388,98
912,35	393,07
912,53	520,05
912,70	493,42
912,88	438,13
913,05	518,00
913,23	409,46
913,40	571,25
913,58	391,03
913,75	489,33
913,93	479,09
914,10	446,32
914,28	444,27
914,46	440,18
914,63	411,51
914,81	454,51
914,98	405,36
915,16	466,80
915,33	395,12
915,51	470,90
915,68	522,10
915,86	462,70
916,03	382,83
916,21	511,86
916,38	407,41
916,56	425,84
916,73	468,85
916,91	434,03
917,08	360,31
917,26	489,33
917,43	546,67
917,61	290,68
917,78	438,13
917,96	364,40
918,13	401,27
918,31	462,70
918,48	362,35
918,66	364,40
918,83	489,33
919,01	440,18
919,18	358,26
919,36	362,35
919,53	511,86
919,71	601,97
919,88	481,14
920,06	460,66
920,23	350,07
920,41	452,46
920,58	362,35
920,76	368,50
920,93	423,79
921,11	434,03
921,28	403,31
921,45	534,38
921,63	479,09
921,80	391,03
921,98	372,59
922,15	333,68
922,33	331,63
922,50	442,22
922,68	444,27
922,85	296,82
923,03	413,55
923,20	470,90
923,38	386,93
923,55	415,60
923,72	364,40
923,90	604,01
924,07	376,69
924,25	372,59
924,42	487,28
924,60	296,82
924,77	417,65
924,95	474,99
925,12	452,46
925,29	505,71
925,47	362,35
925,64	284,53
925,82	278,39
925,99	282,48
926,17	393,07
926,34	450,42
926,51	386,93
926,69	436,08
926,86	415,60
927,04	307,06
927,21	378,74
927,38	444,27
927,56	335,73
927,73	474,99
927,91	323,44
928,08	565,10
928,25	436,08
928,43	348,02
928,60	325,49
928,78	374,64
928,95	378,74
929,12	528,24
929,30	354,16
929,47	313,20
929,65	235,38
929,82	313,20
929,99	341,87
930,17	243,57
930,34	391,03
930,52	376,69
930,69	343,92
930,86	401,27
931,04	313,20
931,21	290,68
931,38	362,35
931,56	345,97
931,73	499,57
931,91	358,26
932,08	397,17
932,25	444,27
932,43	288,63
932,60	372,59
932,77	290,68
932,95	339,83
933,12	395,12
933,29	286,58
933,47	345,97
933,64	350,07
933,82	282,48
933,99	323,44
934,16	255,86
934,34	284,53
934,51	311,15
934,68	321,39
934,86	425,84
935,03	296,82
935,20	300,91
935,38	298,87
935,55	374,64
935,72	270,20
935,90	319,35
936,07	294,77
936,24	249,72
936,42	384,88
936,59	329,59
936,76	339,83
936,94	214,90
937,11	372,59
937,28	370,55
937,46	290,68
937,63	329,59
937,80	274,29
937,97	419,70
938,15	348,02
938,32	282,48
938,49	479,09
938,67	233,33
938,84	376,69
939,01	288,63
939,19	325,49
939,36	337,78
939,53	333,68
939,70	313,20
939,88	282,48
940,05	378,74
940,22	335,73
940,40	401,27
940,57	386,93
940,74	208,76
940,92	325,49
941,09	341,87
941,26	259,96
941,43	278,39
941,61	323,44
941,78	313,20
941,95	327,54
942,12	315,25
942,30	257,91
942,47	362,35
942,64	243,57
942,82	393,07
942,99	421,75
943,16	216,95
943,33	243,57
943,51	255,86
943,68	329,59
943,85	284,53
944,02	309,11
944,20	352,11
944,37	231,28
944,54	302,96
944,71	262,00
944,89	315,25
945,06	235,38
945,23	266,10
945,40	350,07
945,58	307,06
945,75	225,14
945,92	348,02
946,09	262,00
946,27	294,77
946,44	204,66
946,61	286,58
946,78	255,86
946,95	257,91
947,13	237,43
947,30	237,43
947,47	182,13
947,64	241,52
947,82	196,47
947,99	233,33
948,16	175,99
948,33	229,24
948,50	167,80
948,68	417,65
948,85	135,03
949,02	284,53
949,19	231,28
949,36	243,57
949,54	169,84
949,71	264,05
949,88	237,43
950,05	264,05
950,22	288,63
950,40	329,59
950,57	188,28
950,74	327,54
950,91	284,53
951,08	149,37
951,26	313,20
951,43	272,24
951,60	241,52
951,77	305,01
951,94	374,64
952,11	307,06
952,29	358,26
952,46	161,65
952,63	331,63
952,80	253,81
952,97	216,95
953,15	208,76
953,32	257,91
953,49	139,13
953,66	264,05
953,83	149,37
954,00	249,72
954,17	264,05
954,35	380,79
954,52	198,52
954,69	315,25
954,86	335,73
955,03	210,80
955,20	180,08
955,38	223,09
955,55	243,57
955,72	190,32
955,89	190,32
956,06	219,00
956,23	106,36
956,40	280,44
956,58	200,56
956,75	227,19
956,92	253,81
957,09	112,50
957,26	223,09
957,43	235,38
957,60	241,52
957,77	202,61
957,95	302,96
958,12	147,32
958,29	280,44
958,46	307,06
958,63	216,95
958,80	206,71
958,97	272,24
959,14	157,56
959,31	216,95
959,49	259,96
959,66	167,80
959,83	235,38
960,00	130,93
960,17	280,44
960,34	231,28
960,51	89,97
960,68	288,63
960,85	290,68
961,02	221,04
961,20	104,31
961,37	194,42
961,54	247,67
961,71	167,80
961,88	143,22
962,05	233,33
962,22	262,00
962,39	186,23
962,56	259,96
962,73	194,42
962,90	145,27
963,07	139,13
963,24	233,33
963,42	196,47
963,59	206,71
963,76	237,43
963,93	294,77
964,10	149,37
964,27	194,42
964,44	200,56
964,61	173,94
964,78	214,90
964,95	243,57
965,12	184,18
965,29	239,48
965,46	196,47
965,63	251,76
965,80	210,80
965,97	130,93
966,14	147,32
966,31	147,32
966,48	280,44
966,66	175,99
966,83	214,90
967,00	143,22
967,17	198,52
967,34	161,65
967,51	251,76
967,68	161,65
967,85	77,69
968,02	227,19
968,19	130,93
968,36	186,23
968,53	89,97
968,70	243,57
968,87	171,89
969,04	247,67
969,21	184,18
969,38	204,66
969,55	225,14
969,72	225,14
969,89	288,63
970,06	151,41
970,23	151,41
970,40	225,14
970,57	83,83
970,74	210,80
970,91	147,32
971,08	143,22
971,25	132,98
971,42	282,48
971,59	184,18
971,76	87,93
971,93	173,94
972,10	229,24
972,27	132,98
972,44	173,94
972,61	132,98
972,78	163,70
972,95	153,46
973,12	300,91
973,29	141,17
973,46	145,27
973,63	175,99
973,80	190,32
973,97	116,60
974,14	253,81
974,30	206,71
974,47	188,28
974,64	184,18
974,81	231,28
974,98	253,81
975,15	169,84
975,32	192,37
975,49	163,70
975,66	147,32
975,83	311,15
976,00	139,13
976,17	81,78
976,34	124,79
976,51	159,61
976,68	40,82
976,85	188,28
977,02	223,09
977,19	186,23
977,36	108,41
977,52	249,72
977,69	219,00
977,86	163,70
978,03	132,98
978,20	190,32
978,37	175,99
978,54	198,52
978,71	204,66
978,88	257,91
979,05	159,61
979,22	200,56
979,39	221,04
979,56	83,83
979,72	24,44
979,89	161,65
980,06	175,99
980,23	317,30
980,40	63,35
980,57	135,03
980,74	98,17
980,91	169,84
981,08	165,75
981,25	169,84
981,41	178,04
981,58	85,88
981,75	34,68
981,92	163,70
982,09	155,51
982,26	63,35
982,43	79,73
982,60	194,42
982,77	157,56
982,93	175,99
983,10	63,35
983,27	116,60
983,44	157,56
983,61	262,00
983,78	167,80
983,95	24,44
984,11	44,92
984,28	147,32
984,45	36,73
984,62	81,78
984,79	75,64
984,96	212,85
985,13	141,17
985,30	163,70
985,46	51,06
985,63	163,70
985,80	169,84
985,97	130,93
986,14	36,73
986,31	124,79
986,47	157,56
986,64	24,44
986,81	112,50
986,98	128,89
987,15	104,31
987,32	210,80
987,48	157,56
987,65	118,65
987,82	96,12
987,99	221,04
988,16	532,34
988,33	290,68
988,49	128,89
988,66	145,27
988,83	53,11
989,00	139,13
989,17	71,54
989,34	161,65
989,50	126,84
989,67	98,17
989,84	-14,47
990,01	65,40
990,18	143,22
990,34	184,18
990,51	42,87
990,68	124,79
990,85	153,46
991,02	153,46
991,18	24,44
991,35	124,79
991,52	229,24
991,69	85,88
991,86	155,51
992,02	106,36
992,19	38,77
992,36	171,89
992,53	169,84
992,69	63,35
992,86	130,93
993,03	153,46
993,20	40,82
993,37	169,84
993,53	219,00
993,70	110,45
993,87	55,16
994,04	155,51
994,20	69,49
994,37	128,89
994,54	85,88
994,71	104,31
994,87	96,12
995,04	157,56
995,21	94,07
995,38	94,07
995,55	18,30
995,71	92,02
995,88	100,21
996,05	143,22
996,22	233,33
996,38	126,84
996,55	94,07
996,72	122,74
996,88	311,15
997,05	1253,22
997,22	112,50
997,39	73,59
997,55	114,55
997,72	87,93
997,89	77,69
998,06	83,83
998,22	159,61
998,39	63,35
998,56	57,21
998,73	-4,23
998,89	89,97
999,06	100,21
999,23	114,55
999,39	178,04
999,56	139,13
999,73	165,75
999,90	26,49
1000,06	143,22
1000,23	135,03
1000,40	190,32
1000,56	153,46
1000,73	77,69
1000,90	135,03
1001,06	147,32
1001,23	92,02
1001,40	163,70
1001,57	83,83
1001,73	12,15
1001,90	24,44
1002,07	46,97
1002,23	171,89
1002,40	69,49
1002,57	20,34
1002,73	137,08
1002,90	32,63
1003,07	167,80
1003,23	87,93
1003,40	69,49
1003,57	67,45
1003,73	44,92
1003,90	137,08
1004,07	3,96
1004,23	126,84
1004,40	137,08
1004,57	96,12
1004,73	46,97
1004,90	104,31
1005,07	192,37
1005,23	104,31
1005,40	-22,66
1005,57	96,12
1005,73	141,17
1005,90	-10,38
1006,07	100,21
1006,23	67,45
1006,40	34,68
1006,57	100,21
1006,73	108,41
1006,90	173,94
1007,06	96,12
1007,23	-20,62
1007,40	79,73
1007,56	147,32
1007,73	161,65
1007,90	77,69
1008,06	81,78
1008,23	77,69
1008,40	171,89
1008,56	49,01
1008,73	96,12
1008,89	87,93
1009,06	204,66
1009,23	65,40
1009,39	157,56
1009,56	104,31
1009,72	122,74
1009,89	143,22
1010,06	104,31
1010,22	24,44
1010,39	122,74
1010,55	85,88
1010,72	44,92
1010,89	55,16
1011,05	126,84
1011,22	77,69
1011,38	63,35
1011,55	132,98
1011,72	24,44
1011,88	57,21
1012,05	28,54
1012,21	137,08
1012,38	30,58
1012,55	178,04
1012,71	100,21
1012,88	106,36
1013,04	147,32
1013,21	46,97
1013,37	167,80
1013,54	44,92
1013,71	61,30
1013,87	63,35
1014,04	120,69
1014,20	184,18
1014,37	69,49
1014,53	94,07
1014,70	16,25
1014,87	36,73
1015,03	165,75
1015,20	106,36
1015,36	120,69
1015,53	106,36
1015,69	135,03
1015,86	77,69
1016,02	192,37
1016,19	135,03
1016,36	51,06
1016,52	106,36
1016,69	124,79
1016,85	135,03
1017,02	141,17
1017,18	57,21
1017,35	141,17
1017,51	28,54
1017,68	141,17
1017,84	116,60
1018,01	-18,57
1018,17	122,74
1018,34	221,04
1018,50	36,73
1018,67	42,87
1018,84	235,38
1019,00	38,77
1019,17	147,32
1019,33	98,17
1019,50	106,36
1019,66	182,13
1019,83	-71,82
1019,99	151,41
1020,16	-6,28
1020,32	20,34
1020,49	132,98
1020,65	34,68
1020,82	87,93
1020,98	184,18
1021,15	89,97
1021,31	114,55
1021,48	94,07
1021,64	79,73
1021,81	116,60
1021,97	85,88
1022,14	157,56
1022,30	79,73
1022,47	83,83
1022,63	87,93
1022,79	26,49
1022,96	135,03
1023,12	46,97
1023,29	124,79
1023,45	206,71
1023,62	128,89
1023,78	120,69
1023,95	128,89
1024,11	141,17
1024,28	42,87
1024,44	104,31
1024,61	-4,23
1024,77	49,01
1024,94	100,21
1025,10	24,44
1025,26	3,96
1025,43	114,55
1025,59	53,11
1025,76	79,73
1025,92	112,50
1026,09	55,16
1026,25	167,80
1026,42	26,49
1026,58	71,54
1026,74	94,07
1026,91	92,02
1027,07	147,32
1027,24	212,85
1027,40	55,16
1027,57	159,61
1027,73	46,97
1027,90	135,03
1028,06	65,40
1028,22	-2,18
1028,39	65,40
1028,55	130,93
1028,72	124,79
1028,88	221,04
1029,04	-10,38
1029,21	116,60
1029,37	126,84
1029,54	151,41
1029,70	53,11
1029,87	38,77
1030,03	-10,38
1030,19	135,03
1030,36	40,82
1030,52	141,17
1030,69	46,97
1030,85	3,96
1031,01	79,73
1031,18	26,49
1031,34	92,02
1031,50	75,64
1031,67	83,83
1031,83	81,78
1032,00	49,01
1032,16	51,06
1032,32	114,55
1032,49	102,26
1032,65	186,23
1032,82	106,36
1032,98	49,01
1033,14	3,96
1033,31	102,26
1033,47	161,65
1033,63	71,54
1033,80	153,46
1033,96	85,88
1034,13	26,49
1034,29	104,31
1034,45	51,06
1034,62	94,07
1034,78	120,69
1034,94	-10,38
1035,11	149,37
1035,27	28,54
1035,43	63,35
1035,60	98,17
1035,76	75,64
1035,92	57,21
1036,09	40,82
1036,25	77,69
1036,41	42,87
1036,58	124,79
1036,74	161,65
1036,90	26,49
1037,07	-32,90
1037,23	126,84
1037,39	225,14
1037,56	-63,62
1037,72	77,69
1037,88	124,79
1038,05	63,35
1038,21	55,16
1038,37	63,35
1038,54	100,21
1038,70	137,08
1038,86	98,17
1039,03	157,56
1039,19	137,08
1039,35	34,68
1039,52	16,25
1039,68	53,11
1039,84	46,97
1040,00	36,73
1040,17	12,15
1040,33	59,25
1040,49	53,11
1040,66	122,74
1040,82	130,93
1040,98	175,99
1041,15	63,35
1041,31	61,30
1041,47	67,45
1041,63	-32,90
1041,80	89,97
1041,96	130,93
1042,12	92,02
1042,29	63,35
1042,45	87,93
1042,61	102,26
1042,77	130,93
1042,94	94,07
1043,10	331,63
1043,26	6,01
1043,42	83,83
1043,59	173,94
1043,75	165,75
1043,91	132,98
1044,07	71,54
1044,24	20,34
1044,40	108,41
>>>>>End Processed Spectral Data<<<<<
