SpectraSuite Data File
++++++++++++++++++++++++++++++++++++
Date: Mon Nov 09 12:19:08 BRST 2020
User: Administrador
Dark Spectrum Present: No
Reference Spectrum Present: No
Number of Sampled Component Spectra: 1
Spectrometers: USB4F02573
Integration Time (usec): 100000 (USB4F02573)
Spectra Averaged: 1 (USB4F02573)
Boxcar Smoothing: 0 (USB4F02573)
Correct for Electrical Dark: Yes (USB4F02573)
Strobe/Lamp Enabled: No (USB4F02573)
Correct for Detector Non-linearity: No (USB4F02573)
Correct for Stray Light: No (USB4F02573)
Number of Pixels in Processed Spectrum: 3648
>>>>>Begin Processed Spectral Data<<<<<
345,22	-79,11
345,44	-79,11
345,66	-79,11
345,88	-130,31
346,10	-167,17
346,32	162,55
346,54	103,16
346,75	74,49
346,97	97,02
347,19	125,69
347,41	-1,29
347,63	17,15
347,85	27,39
348,07	90,87
348,29	170,74
348,51	39,67
348,73	88,82
348,95	-40,20
349,16	135,93
349,38	66,30
349,60	185,08
349,82	144,12
350,04	45,82
350,26	185,08
350,48	185,08
350,70	211,70
350,92	160,50
351,14	199,42
351,35	135,93
351,57	150,26
351,79	154,36
352,01	78,59
352,23	90,87
352,45	180,98
352,67	90,87
352,89	8,95
353,10	191,22
353,32	166,65
353,54	72,44
353,76	142,07
353,98	189,18
354,20	133,88
354,42	140,02
354,64	164,60
354,85	228,09
355,07	117,50
355,29	150,26
355,51	154,36
355,73	197,37
355,95	74,49
356,17	156,41
356,38	199,42
356,60	76,54
356,82	146,17
357,04	64,25
357,26	101,11
357,48	164,60
357,69	205,56
357,91	117,50
358,13	189,18
358,35	168,70
358,57	150,26
358,79	258,81
359,01	201,46
359,22	180,98
359,44	234,23
359,66	140,02
359,88	41,72
360,10	228,09
360,32	82,68
360,53	62,20
360,75	168,70
360,97	156,41
361,19	197,37
361,41	262,90
361,62	203,51
361,84	189,18
362,06	156,41
362,28	166,65
362,50	242,42
362,72	172,79
362,93	54,01
363,15	47,87
363,37	258,81
363,59	209,66
363,81	90,87
364,02	283,38
364,24	109,30
364,46	150,26
364,68	142,07
364,90	275,19
365,11	189,18
365,33	170,74
365,55	115,45
365,77	105,21
365,99	148,22
366,20	223,99
366,42	140,02
366,64	119,54
366,86	133,88
367,07	240,37
367,29	137,98
367,51	119,54
367,73	135,93
367,95	178,94
368,16	258,81
368,38	223,99
368,60	178,94
368,82	154,36
369,03	310,01
369,25	223,99
369,47	99,06
369,69	152,31
369,91	211,70
370,12	45,82
370,34	127,74
370,56	115,45
370,78	162,55
370,99	310,01
371,21	105,21
371,43	162,55
371,65	80,63
371,86	176,89
372,08	295,67
372,30	195,32
372,52	142,07
372,73	82,68
372,95	121,59
373,17	66,30
373,39	133,88
373,60	199,42
373,82	164,60
374,04	115,45
374,26	164,60
374,47	113,40
374,69	142,07
374,91	279,29
375,12	170,74
375,34	164,60
375,56	140,02
375,78	172,79
375,99	62,20
376,21	213,75
376,43	160,50
376,65	183,03
376,86	205,56
377,08	125,69
377,30	307,96
377,51	148,22
377,73	148,22
377,95	119,54
378,17	187,13
378,38	119,54
378,60	164,60
378,82	328,44
379,03	203,51
379,25	178,94
379,47	209,66
379,68	142,07
379,90	90,87
380,12	217,85
380,34	185,08
380,55	152,31
380,77	207,61
380,99	197,37
381,20	201,46
381,42	121,59
381,64	68,35
381,85	107,26
382,07	240,37
382,29	213,75
382,50	180,98
382,72	201,46
382,94	166,65
383,15	137,98
383,37	125,69
383,59	207,61
383,80	152,31
384,02	191,22
384,24	189,18
384,45	287,48
384,67	238,33
384,89	92,92
385,10	150,26
385,32	160,50
385,54	240,37
385,75	119,54
385,97	250,61
386,19	287,48
386,40	252,66
386,62	230,13
386,84	162,55
387,05	154,36
387,27	150,26
387,49	131,83
387,70	107,26
387,92	133,88
388,14	86,78
388,35	103,16
388,57	183,03
388,79	203,51
389,00	150,26
389,22	215,80
389,43	199,42
389,65	211,70
389,87	207,61
390,08	156,41
390,30	287,48
390,52	232,18
390,73	207,61
390,95	99,06
391,17	154,36
391,38	203,51
391,60	246,52
391,81	170,74
392,03	74,49
392,25	119,54
392,46	164,60
392,68	297,72
392,89	70,39
393,11	121,59
393,33	189,18
393,54	248,57
393,76	207,61
393,98	246,52
394,19	109,30
394,41	172,79
394,62	76,54
394,84	293,62
395,06	127,74
395,27	125,69
395,49	168,70
395,70	281,33
395,92	94,97
396,13	152,31
396,35	219,89
396,57	125,69
396,78	101,11
397,00	154,36
397,21	252,66
397,43	305,91
397,65	275,19
397,86	279,29
398,08	262,90
398,29	234,23
398,51	99,06
398,72	226,04
398,94	328,44
399,16	320,25
399,37	142,07
399,59	330,49
399,80	219,89
400,02	211,70
400,23	254,71
400,45	267,00
400,67	318,20
400,88	209,66
401,10	232,18
401,31	154,36
401,53	193,27
401,74	217,85
401,96	205,56
402,17	183,03
402,39	203,51
402,61	180,98
402,82	135,93
403,04	238,33
403,25	133,88
403,47	285,43
403,68	172,79
403,90	305,91
404,11	123,64
404,33	103,16
404,54	338,68
404,76	209,66
404,97	197,37
405,19	299,77
405,41	281,33
405,62	336,63
405,84	262,90
406,05	348,92
406,27	195,32
406,48	205,56
406,70	344,82
406,91	252,66
407,13	246,52
407,34	312,05
407,56	396,02
407,77	240,37
407,99	344,82
408,20	383,73
408,42	248,57
408,63	328,44
408,85	254,71
409,06	281,33
409,28	416,50
409,49	242,42
409,71	277,24
409,92	326,39
410,14	285,43
410,35	342,77
410,57	318,20
410,78	189,18
411,00	258,81
411,21	400,12
411,43	408,31
411,64	330,49
411,86	393,97
412,07	414,45
412,29	326,39
412,50	320,25
412,72	402,16
412,93	422,64
413,15	350,96
413,36	379,64
413,58	488,18
413,79	379,64
414,01	387,83
414,22	336,63
414,43	393,97
414,65	375,54
414,86	320,25
415,08	314,10
415,29	379,64
415,51	301,81
415,72	430,84
415,94	381,68
416,15	404,21
416,37	484,08
416,58	295,67
416,80	426,74
417,01	461,56
417,22	473,84
417,44	469,75
417,65	449,27
417,87	389,88
418,08	617,20
418,30	436,98
418,51	504,56
418,73	441,08
418,94	459,51
419,15	484,08
419,37	629,49
419,58	465,65
419,80	568,05
420,01	615,15
420,23	570,10
420,44	658,16
420,65	711,41
420,87	744,17
421,08	697,07
421,30	686,83
421,51	637,68
421,73	727,79
421,94	688,88
422,15	754,41
422,37	774,89
422,58	684,78
422,80	713,46
423,01	799,47
423,22	746,22
423,44	860,91
423,65	934,64
423,87	850,67
424,08	1008,36
424,29	899,82
424,51	971,50
424,72	1127,15
424,94	1028,84
425,15	975,60
425,36	1219,30
425,58	1153,77
425,79	1180,39
426,01	1354,47
426,22	1231,59
426,43	1481,44
426,65	1354,47
426,86	1354,47
427,08	1508,07
427,29	1366,76
427,50	1503,97
427,72	1620,71
427,93	1475,30
428,14	1624,80
428,36	1825,50
428,57	1878,75
428,79	1915,61
429,00	1866,46
429,21	2024,16
429,43	2075,35
429,64	2216,66
429,85	2204,38
430,07	2515,67
430,28	2366,17
430,49	2458,32
430,71	2573,01
430,92	2806,48
431,14	2890,45
431,35	2861,77
431,56	2867,92
431,78	3197,64
431,99	3246,79
432,20	3558,08
432,42	3474,12
432,63	3785,41
432,84	3789,50
433,06	3621,57
433,27	3967,68
433,48	4291,26
433,70	4289,21
433,91	4326,07
434,12	4506,29
434,34	4819,63
434,55	4999,85
434,76	5401,26
434,98	5325,48
435,19	5558,95
435,40	5724,83
435,62	5986,97
435,83	6167,20
436,04	6421,14
436,26	6480,54
436,47	6443,67
436,68	6462,10
436,90	7203,47
437,11	7486,09
437,32	7711,36
437,54	8315,52
437,75	8198,78
437,96	8663,67
438,17	8798,84
438,39	8956,53
438,60	9126,51
438,81	9478,76
439,03	10097,25
439,24	10865,24
439,45	11283,02
439,67	10967,63
439,88	11319,89
440,09	11278,93
440,30	11788,87
440,52	12094,02
440,73	12952,12
440,94	13189,68
441,16	13384,24
441,37	13576,75
441,58	14375,45
441,80	15133,20
442,01	15096,34
442,22	15813,13
442,43	15739,40
442,65	16386,56
442,86	16120,32
443,07	17189,36
443,28	16714,24
443,50	17871,34
443,71	18645,47
443,92	18670,05
444,14	18489,82
444,35	19861,96
444,56	20040,14
444,77	20775,36
444,99	19880,39
445,20	20451,78
445,41	21320,12
445,62	21977,51
445,84	22722,98
446,05	22968,73
446,26	23626,13
446,47	22219,18
446,69	22700,45
446,90	24650,11
447,11	24342,92
447,32	23728,53
447,54	24357,25
447,75	24729,98
447,96	24340,87
448,17	24928,64
448,39	26229,10
448,60	25180,54
448,81	26630,50
449,02	26239,34
449,23	26978,65
449,45	28369,23
449,66	27244,89
449,87	27369,82
450,08	28246,35
450,30	28070,22
450,51	29155,65
450,72	28639,56
450,93	30892,32
451,15	29520,18
451,36	28782,92
451,57	29546,81
451,78	28608,84
451,99	30841,12
452,21	31770,90
452,42	30204,21
452,63	29903,15
452,84	29534,52
453,05	31000,87
453,27	30937,38
453,48	31029,54
453,69	30417,19
453,90	31021,34
454,11	31119,65
454,33	30443,82
454,54	31340,83
454,75	31643,93
454,96	31838,48
455,17	31076,64
455,39	30931,23
455,60	31987,99
455,81	32442,64
456,02	30337,32
456,23	29178,17
456,45	31002,91
456,66	29071,68
456,87	29391,16
457,08	31172,89
457,29	30722,34
457,50	29245,76
457,72	29430,07
457,93	28692,80
458,14	30908,71
458,35	30191,92
458,56	29786,42
458,77	28408,14
458,99	28963,14
459,20	28117,33
459,41	28815,68
459,62	27246,94
459,83	27808,08
460,04	28899,65
460,26	28893,51
460,47	27810,13
460,68	26749,28
460,89	26614,12
461,10	26052,97
461,31	27021,66
461,52	26851,68
461,74	26022,25
461,95	25848,18
462,16	26415,46
462,37	26317,16
462,58	25459,06
462,79	25598,32
463,00	25913,71
463,22	25741,68
463,43	24646,02
463,64	24473,99
463,85	24607,11
464,06	24920,45
464,27	23677,33
464,48	23796,11
464,70	24088,97
464,91	24201,61
465,12	24383,88
465,33	24539,52
465,54	23587,22
465,75	23413,14
465,96	23869,84
466,17	23048,60
466,38	23261,59
466,60	22120,87
466,81	22192,55
467,02	23511,44
467,23	22170,02
467,44	21160,38
467,65	21432,76
467,86	21324,21
468,07	22325,67
468,28	22000,04
468,50	20709,82
468,71	20754,88
468,92	20378,05
469,13	19947,98
469,34	19585,49
469,55	20191,69
469,76	19984,84
469,97	19489,23
470,18	19634,64
470,39	20079,05
470,60	19091,93
470,82	18495,97
471,03	17969,64
471,24	18516,45
471,45	17957,35
471,66	18690,53
471,87	18262,50
472,08	17750,51
472,29	17332,72
472,50	17508,85
472,71	17129,97
472,92	16933,37
473,13	16853,50
473,34	16671,23
473,55	16413,18
473,77	16673,28
473,98	16296,45
474,19	15987,21
474,40	15911,43
474,61	16007,69
474,82	15202,83
475,03	15026,71
475,24	14879,26
475,45	15067,67
475,66	15475,21
475,87	14756,38
476,08	14574,11
476,29	14467,61
476,50	14721,56
476,71	14504,48
476,92	13765,16
477,13	14088,74
477,34	13584,94
477,55	13744,68
477,76	13668,91
477,97	13101,62
478,18	13496,88
478,40	13257,26
478,61	13064,75
478,82	12831,29
479,03	12186,18
479,24	12395,07
479,45	12882,49
479,66	11921,99
479,87	11536,97
480,08	11608,65
480,29	11934,28
480,50	11627,08
480,71	11414,09
480,92	11405,90
481,13	11063,89
481,34	11135,57
481,55	10936,92
481,76	10965,59
481,97	10599,00
482,18	10449,50
482,39	9966,18
482,60	10074,72
482,81	10185,31
483,02	9974,37
483,23	9550,44
483,44	9609,83
483,65	9681,51
483,86	9595,50
484,07	9673,32
484,28	9392,75
484,49	9241,20
484,70	9230,96
484,91	8987,25
485,12	8675,96
485,33	8452,73
485,54	8630,90
485,75	8358,52
485,96	8532,60
486,17	8247,93
486,38	7971,46
486,59	8034,94
486,80	8002,18
487,01	7840,39
487,21	7756,42
487,42	7551,62
487,63	7787,14
487,84	7307,91
488,05	7391,88
488,26	7473,80
488,47	7170,70
488,68	7139,98
488,89	7152,27
489,10	6935,18
489,31	6732,44
489,52	6703,76
489,73	6453,91
489,94	6517,40
490,15	6398,62
490,36	6455,96
490,57	6177,44
490,78	6089,37
490,99	6046,37
491,20	5989,02
491,41	6048,41
491,61	6040,22
491,82	5843,62
492,03	5505,70
492,24	5395,11
492,45	5399,21
492,66	5249,71
492,87	5169,84
493,08	5001,90
493,29	5032,62
493,50	4827,82
493,71	4954,80
493,92	4833,97
494,13	4711,09
494,34	4569,78
494,54	4713,14
494,75	4518,58
494,96	4563,64
495,17	4373,18
495,38	4465,33
495,59	4217,53
495,80	4262,59
496,01	4256,44
496,22	3881,66
496,43	3781,31
496,64	3992,25
496,84	4022,97
497,05	3805,89
497,26	3977,92
497,47	3824,32
497,68	3740,35
497,89	3590,85
498,10	3584,71
498,31	3576,52
498,52	3545,80
498,72	3457,73
498,93	3412,68
499,14	3310,28
499,35	3166,92
499,56	3144,39
499,77	3224,27
499,98	3113,67
500,19	3154,63
500,40	3054,28
500,60	2894,54
500,81	3039,95
501,02	2980,56
501,23	2992,84
501,44	3072,72
501,65	2904,78
501,86	2687,70
502,06	2685,65
502,27	2710,22
502,48	2708,18
502,69	2708,18
502,90	2732,75
503,11	2478,80
503,32	2681,55
503,53	2443,99
503,73	2394,84
503,94	2368,21
504,15	2497,24
504,36	2429,65
504,57	2341,59
504,78	2241,24
504,98	2312,92
505,19	2192,09
505,40	2187,99
505,61	2259,67
505,82	2097,88
506,03	2112,22
506,23	2210,52
506,44	2020,06
506,65	2130,65
506,86	2061,02
507,07	1962,72
507,28	2073,31
507,48	2015,96
507,69	1884,89
507,90	1905,37
508,11	1737,44
508,32	1747,68
508,53	1868,51
508,73	1774,30
508,94	1719,01
509,15	1813,21
509,36	1667,81
509,57	1641,19
509,77	1604,32
509,98	1680,10
510,19	1575,65
510,40	1700,58
510,61	1544,93
510,81	1495,78
511,02	1577,70
511,23	1579,75
511,44	1549,03
511,65	1506,02
511,85	1438,44
512,06	1368,81
512,27	1399,52
512,48	1448,68
512,69	1460,96
512,89	1311,46
513,10	1438,44
513,31	1364,71
513,52	1309,41
513,73	1299,17
513,93	1387,24
514,14	1379,05
514,35	1397,48
514,56	1297,13
514,76	1305,32
514,97	1389,29
515,18	1377,00
515,39	1180,39
515,60	1143,53
515,80	1188,58
516,01	1262,31
516,22	1225,45
516,43	1155,82
516,63	1239,78
516,84	1336,04
517,05	1112,81
517,26	1168,10
517,46	1145,58
517,67	1155,82
517,88	1141,48
518,09	1024,75
518,29	1112,81
518,50	1153,77
518,71	1008,36
518,92	1121,00
519,12	1034,99
519,33	1069,80
519,54	1061,61
519,75	1071,85
519,95	1094,38
520,16	1037,03
520,37	826,09
520,57	934,64
520,78	1049,32
520,99	1043,18
521,20	1090,28
521,40	871,15
521,61	975,60
521,82	873,20
522,03	862,96
522,23	940,78
522,44	905,96
522,65	869,10
522,85	805,61
523,06	865,01
523,27	760,56
523,48	869,10
523,68	828,14
523,89	842,48
524,10	850,67
524,30	787,18
524,51	840,43
524,72	793,33
524,93	740,08
525,13	760,56
525,34	801,52
525,55	869,10
525,75	752,37
525,96	754,41
526,17	809,71
526,37	801,52
526,58	752,37
526,79	740,08
526,99	692,98
527,20	809,71
527,41	719,60
527,62	666,35
527,82	781,04
528,03	711,41
528,24	666,35
528,44	834,29
528,65	584,43
528,86	647,92
529,06	633,58
529,27	631,54
529,48	652,02
529,68	772,85
529,89	705,26
530,10	742,13
530,30	623,34
530,51	561,91
530,72	619,25
530,92	666,35
531,13	621,30
531,34	678,64
531,54	645,87
531,75	602,87
531,96	834,29
532,16	633,58
532,37	721,65
532,57	631,54
532,78	729,84
532,99	582,39
533,19	678,64
533,40	649,97
533,61	598,77
533,81	631,54
534,02	580,34
534,23	598,77
534,43	635,63
534,64	594,67
534,84	627,44
535,05	594,67
535,26	566,00
535,46	615,15
535,67	623,34
535,88	541,43
536,08	553,71
536,29	602,87
536,49	531,19
536,70	676,59
536,91	504,56
537,11	537,33
537,32	508,66
537,53	576,24
537,73	625,39
537,94	484,08
538,14	561,91
538,35	621,30
538,56	649,97
538,76	533,23
538,97	529,14
539,17	518,90
539,38	633,58
539,59	629,49
539,79	584,43
540,00	631,54
540,20	535,28
540,41	549,62
540,62	908,01
540,82	566,00
541,03	504,56
541,23	545,52
541,44	522,99
541,64	473,84
541,85	441,08
542,06	479,99
542,26	479,99
542,47	611,06
542,67	494,32
542,88	576,24
543,08	514,80
543,29	568,05
543,50	586,48
543,70	545,52
543,91	529,14
544,11	459,51
544,32	604,91
544,52	584,43
544,73	355,06
544,94	359,16
545,14	449,27
545,35	490,23
545,55	473,84
545,76	547,57
545,96	482,03
546,17	412,40
546,37	500,47
546,58	479,99
546,78	359,16
546,99	488,18
547,20	522,99
547,40	529,14
547,61	539,38
547,81	512,75
548,02	516,85
548,22	461,56
548,43	639,73
548,63	486,13
548,84	535,28
549,04	557,81
549,25	402,16
549,45	479,99
549,66	420,60
549,86	518,90
550,07	381,68
550,27	443,12
550,48	561,91
550,69	506,61
550,89	553,71
551,10	398,07
551,30	623,34
551,51	490,23
551,71	473,84
551,92	449,27
552,12	471,80
552,33	479,99
552,53	377,59
552,74	426,74
552,94	430,84
553,15	353,01
553,35	555,76
553,56	416,50
553,76	439,03
553,97	484,08
554,17	441,08
554,38	467,70
554,58	520,95
554,79	369,40
554,99	434,93
555,19	369,40
555,40	479,99
555,60	416,50
555,81	299,77
556,01	436,98
556,22	527,09
556,42	484,08
556,63	357,11
556,83	506,61
557,04	451,32
557,24	527,09
557,45	428,79
557,65	430,84
557,86	404,21
558,06	506,61
558,27	465,65
558,47	332,53
558,67	541,43
558,88	359,16
559,08	404,21
559,29	353,01
559,49	410,36
559,70	365,30
559,90	371,44
560,11	410,36
560,31	320,25
560,52	459,51
560,72	473,84
560,92	439,03
561,13	479,99
561,33	387,83
561,54	422,64
561,74	469,75
561,95	369,40
562,15	393,97
562,35	387,83
562,56	414,45
562,76	301,81
562,97	371,44
563,17	379,64
563,38	365,30
563,58	455,41
563,78	426,74
563,99	365,30
564,19	279,29
564,40	424,69
564,60	346,87
564,80	379,64
565,01	299,77
565,21	410,36
565,42	537,33
565,62	404,21
565,83	434,93
566,03	387,83
566,23	418,55
566,44	477,94
566,64	387,83
566,85	469,75
567,05	406,26
567,25	303,86
567,46	414,45
567,66	422,64
567,86	377,59
568,07	367,35
568,27	373,49
568,48	342,77
568,68	400,12
568,88	430,84
569,09	424,69
569,29	391,92
569,50	303,86
569,70	426,74
569,90	406,26
570,11	479,99
570,31	355,06
570,51	443,12
570,72	387,83
570,92	455,41
571,13	410,36
571,33	283,38
571,53	447,22
571,74	387,83
571,94	445,17
572,14	344,82
572,35	197,37
572,55	473,84
572,75	432,88
572,96	443,12
573,16	430,84
573,36	336,63
573,57	422,64
573,77	432,88
573,97	348,92
574,18	295,67
574,38	369,40
574,59	443,12
574,79	441,08
574,99	307,96
575,20	432,88
575,40	322,29
575,60	355,06
575,81	541,43
576,01	406,26
576,21	324,34
576,42	389,88
576,62	375,54
576,82	336,63
577,02	346,87
577,23	326,39
577,43	443,12
577,63	430,84
577,84	361,20
578,04	375,54
578,24	303,86
578,45	359,16
578,65	316,15
578,85	326,39
579,06	445,17
579,26	432,88
579,46	443,12
579,67	418,55
579,87	412,40
580,07	453,36
580,27	326,39
580,48	353,01
580,68	418,55
580,88	443,12
581,09	441,08
581,29	387,83
581,49	467,70
581,69	359,16
581,90	373,49
582,10	344,82
582,30	406,26
582,51	441,08
582,71	365,30
582,91	283,38
583,11	387,83
583,32	428,79
583,52	307,96
583,72	375,54
583,93	375,54
584,13	447,22
584,33	449,27
584,53	365,30
584,74	381,68
584,94	346,87
585,14	385,78
585,34	434,93
585,55	297,72
585,75	461,56
585,95	365,30
586,15	346,87
586,36	428,79
586,56	479,99
586,76	414,45
586,96	361,20
587,17	398,07
587,37	445,17
587,57	350,96
587,77	346,87
587,98	459,51
588,18	359,16
588,38	285,43
588,58	389,88
588,79	287,48
588,99	307,96
589,19	334,58
589,39	353,01
589,60	379,64
589,80	443,12
590,00	359,16
590,20	410,36
590,40	367,35
590,61	371,44
590,81	365,30
591,01	312,05
591,21	404,21
591,42	320,25
591,62	344,82
591,82	316,15
592,02	420,60
592,22	426,74
592,43	346,87
592,63	447,22
592,83	346,87
593,03	457,46
593,23	367,35
593,44	398,07
593,64	318,20
593,84	396,02
594,04	396,02
594,24	275,19
594,45	291,57
594,65	303,86
594,85	369,40
595,05	353,01
595,25	334,58
595,46	469,75
595,66	365,30
595,86	336,63
596,06	326,39
596,26	273,14
596,46	355,06
596,67	330,49
596,87	326,39
597,07	344,82
597,27	336,63
597,47	287,48
597,67	422,64
597,88	332,53
598,08	303,86
598,28	355,06
598,48	299,77
598,68	346,87
598,88	375,54
599,09	430,84
599,29	244,47
599,49	334,58
599,69	379,64
599,89	348,92
600,09	369,40
600,30	412,40
600,50	439,03
600,70	365,30
600,90	375,54
601,10	387,83
601,30	326,39
601,50	391,92
601,71	451,32
601,91	463,60
602,11	301,81
602,31	338,68
602,51	365,30
602,71	295,67
602,91	332,53
603,11	326,39
603,32	320,25
603,52	330,49
603,72	363,25
603,92	291,57
604,12	396,02
604,32	379,64
604,52	355,06
604,72	338,68
604,93	424,69
605,13	359,16
605,33	406,26
605,53	389,88
605,73	310,01
605,93	430,84
606,13	342,77
606,33	305,91
606,53	285,43
606,74	402,16
606,94	379,64
607,14	398,07
607,34	336,63
607,54	246,52
607,74	264,95
607,94	269,05
608,14	402,16
608,34	305,91
608,54	326,39
608,74	281,33
608,95	363,25
609,15	418,55
609,35	219,89
609,55	385,78
609,75	281,33
609,95	463,60
610,15	303,86
610,35	342,77
610,55	305,91
610,75	269,05
610,95	283,38
611,15	344,82
611,35	430,84
611,55	434,93
611,76	410,36
611,96	328,44
612,16	346,87
612,36	383,73
612,56	373,49
612,76	350,96
612,96	439,03
613,16	465,65
613,36	346,87
613,56	346,87
613,76	318,20
613,96	297,72
614,16	332,53
614,36	316,15
614,56	328,44
614,76	348,92
614,96	314,10
615,16	326,39
615,36	226,04
615,56	303,86
615,76	334,58
615,97	277,24
616,17	348,92
616,37	344,82
616,57	381,68
616,77	367,35
616,97	520,95
617,17	289,53
617,37	412,40
617,57	383,73
617,77	406,26
617,97	418,55
618,17	361,20
618,37	369,40
618,57	340,73
618,77	359,16
618,97	391,92
619,17	400,12
619,37	400,12
619,57	367,35
619,77	283,38
619,97	443,12
620,17	377,59
620,37	404,21
620,57	318,20
620,77	373,49
620,97	404,21
621,17	381,68
621,37	291,57
621,57	334,58
621,77	256,76
621,97	350,96
622,17	297,72
622,37	240,37
622,57	350,96
622,77	369,40
622,97	277,24
623,17	338,68
623,37	377,59
623,57	477,94
623,77	310,01
623,97	344,82
624,16	260,85
624,36	369,40
624,56	172,79
624,76	305,91
624,96	293,62
625,16	334,58
625,36	320,25
625,56	346,87
625,76	350,96
625,96	328,44
626,16	361,20
626,36	287,48
626,56	441,08
626,76	377,59
626,96	318,20
627,16	336,63
627,36	310,01
627,56	428,79
627,76	275,19
627,96	264,95
628,16	422,64
628,35	369,40
628,55	359,16
628,75	334,58
628,95	256,76
629,15	412,40
629,35	303,86
629,55	279,29
629,75	371,44
629,95	432,88
630,15	393,97
630,35	297,72
630,55	367,35
630,75	310,01
630,95	365,30
631,14	355,06
631,34	277,24
631,54	310,01
631,74	361,20
631,94	307,96
632,14	267,00
632,34	305,91
632,54	391,92
632,74	275,19
632,94	273,14
633,14	299,77
633,33	271,09
633,53	312,05
633,73	465,65
633,93	488,18
634,13	314,10
634,33	328,44
634,53	240,37
634,73	383,73
634,93	328,44
635,12	291,57
635,32	420,60
635,52	252,66
635,72	236,28
635,92	310,01
636,12	408,31
636,32	295,67
636,52	252,66
636,71	320,25
636,91	326,39
637,11	307,96
637,31	359,16
637,51	269,05
637,71	363,25
637,91	285,43
638,11	324,34
638,30	115,45
638,50	260,85
638,70	371,44
638,90	342,77
639,10	375,54
639,30	273,14
639,50	340,73
639,69	301,81
639,89	305,91
640,09	291,57
640,29	363,25
640,49	287,48
640,69	287,48
640,88	342,77
641,08	314,10
641,28	367,35
641,48	330,49
641,68	236,28
641,88	350,96
642,07	223,99
642,27	353,01
642,47	244,47
642,67	336,63
642,87	238,33
643,07	357,11
643,26	291,57
643,46	363,25
643,66	246,52
643,86	365,30
644,06	279,29
644,26	340,73
644,45	256,76
644,65	262,90
644,85	328,44
645,05	275,19
645,25	293,62
645,44	291,57
645,64	264,95
645,84	310,01
646,04	223,99
646,24	365,30
646,43	408,31
646,63	418,55
646,83	277,24
647,03	412,40
647,23	240,37
647,42	428,79
647,62	355,06
647,82	287,48
648,02	281,33
648,22	439,03
648,41	316,15
648,61	305,91
648,81	361,20
649,01	359,16
649,20	396,02
649,40	283,38
649,60	426,74
649,80	344,82
650,00	320,25
650,19	262,90
650,39	357,11
650,59	307,96
650,79	281,33
650,98	183,03
651,18	160,50
651,38	275,19
651,58	295,67
651,77	154,36
651,97	340,73
652,17	285,43
652,37	213,75
652,56	277,24
652,76	312,05
652,96	387,83
653,16	228,09
653,35	232,18
653,55	193,27
653,75	226,04
653,95	449,27
654,14	219,89
654,34	242,42
654,54	332,53
654,74	293,62
654,93	195,32
655,13	236,28
655,33	197,37
655,52	369,40
655,72	310,01
655,92	230,13
656,12	244,47
656,31	275,19
656,51	273,14
656,71	256,76
656,91	295,67
657,10	166,65
657,30	197,37
657,50	291,57
657,69	279,29
657,89	262,90
658,09	348,92
658,29	350,96
658,48	312,05
658,68	205,56
658,88	277,24
659,07	244,47
659,27	287,48
659,47	312,05
659,66	338,68
659,86	287,48
660,06	232,18
660,26	336,63
660,45	287,48
660,65	428,79
660,85	248,57
661,04	285,43
661,24	393,97
661,44	221,94
661,63	281,33
661,83	324,34
662,03	250,61
662,22	281,33
662,42	301,81
662,62	361,20
662,81	217,85
663,01	221,94
663,21	346,87
663,40	279,29
663,60	365,30
663,80	256,76
663,99	326,39
664,19	363,25
664,39	301,81
664,58	326,39
664,78	320,25
664,98	203,51
665,17	273,14
665,37	336,63
665,57	404,21
665,76	256,76
665,96	226,04
666,16	283,38
666,35	373,49
666,55	336,63
666,74	381,68
666,94	371,44
667,14	316,15
667,33	283,38
667,53	393,97
667,73	310,01
667,92	369,40
668,12	228,09
668,32	291,57
668,51	291,57
668,71	301,81
668,90	213,75
669,10	254,71
669,30	310,01
669,49	359,16
669,69	344,82
669,89	209,66
670,08	277,24
670,28	510,71
670,47	250,61
670,67	348,92
670,87	287,48
671,06	310,01
671,26	318,20
671,45	295,67
671,65	365,30
671,85	301,81
672,04	226,04
672,24	209,66
672,43	271,09
672,63	383,73
672,83	240,37
673,02	211,70
673,22	232,18
673,41	283,38
673,61	197,37
673,81	291,57
674,00	314,10
674,20	238,33
674,39	201,46
674,59	252,66
674,78	289,53
674,98	398,07
675,18	344,82
675,37	234,23
675,57	328,44
675,76	320,25
675,96	295,67
676,15	320,25
676,35	350,96
676,55	219,89
676,74	226,04
676,94	269,05
677,13	252,66
677,33	340,73
677,52	312,05
677,72	211,70
677,91	191,22
678,11	262,90
678,31	223,99
678,50	281,33
678,70	230,13
678,89	269,05
679,09	271,09
679,28	287,48
679,48	211,70
679,67	223,99
679,87	142,07
680,06	531,19
680,26	357,11
680,46	355,06
680,65	322,29
680,85	295,67
681,04	217,85
681,24	246,52
681,43	244,47
681,63	342,77
681,82	246,52
682,02	154,36
682,21	346,87
682,41	264,95
682,60	246,52
682,80	307,96
682,99	273,14
683,19	285,43
683,38	287,48
683,58	305,91
683,77	246,52
683,97	295,67
684,16	506,61
684,36	187,13
684,55	305,91
684,75	228,09
684,94	322,29
685,14	328,44
685,33	215,80
685,53	303,86
685,72	305,91
685,92	326,39
686,11	189,18
686,31	301,81
686,50	307,96
686,70	293,62
686,89	234,23
687,09	230,13
687,28	301,81
687,48	207,61
687,67	197,37
687,87	275,19
688,06	174,84
688,26	299,77
688,45	223,99
688,65	285,43
688,84	324,34
689,03	215,80
689,23	226,04
689,42	346,87
689,62	297,72
689,81	348,92
690,01	219,89
690,20	205,56
690,40	297,72
690,59	375,54
690,79	236,28
690,98	248,57
691,17	277,24
691,37	338,68
691,56	273,14
691,76	393,97
691,95	318,20
692,15	144,12
692,34	299,77
692,54	262,90
692,73	287,48
692,92	277,24
693,12	250,61
693,31	230,13
693,51	365,30
693,70	322,29
693,90	262,90
694,09	234,23
694,28	340,73
694,48	307,96
694,67	297,72
694,87	283,38
695,06	289,53
695,26	295,67
695,45	289,53
695,64	238,33
695,84	291,57
696,03	228,09
696,23	275,19
696,42	223,99
696,61	275,19
696,81	215,80
697,00	254,71
697,20	252,66
697,39	316,15
697,58	148,22
697,78	334,58
697,97	217,85
698,17	166,65
698,36	242,42
698,55	226,04
698,75	350,96
698,94	295,67
699,14	183,03
699,33	174,84
699,52	320,25
699,72	209,66
699,91	230,13
700,10	307,96
700,30	228,09
700,49	234,23
700,69	271,09
700,88	254,71
701,07	232,18
701,27	207,61
701,46	449,27
701,65	250,61
701,85	223,99
702,04	342,77
702,23	242,42
702,43	123,64
702,62	205,56
702,82	217,85
703,01	418,55
703,20	338,68
703,40	262,90
703,59	244,47
703,78	267,00
703,98	250,61
704,17	273,14
704,36	312,05
704,56	391,92
704,75	211,70
704,94	262,90
705,14	344,82
705,33	226,04
705,52	226,04
705,72	172,79
705,91	283,38
706,10	195,32
706,30	287,48
706,49	295,67
706,68	295,67
706,88	289,53
707,07	213,75
707,26	205,56
707,46	346,87
707,65	383,73
707,84	223,99
708,04	140,02
708,23	318,20
708,42	162,55
708,62	248,57
708,81	135,93
709,00	357,11
709,19	250,61
709,39	230,13
709,58	217,85
709,77	203,51
709,97	279,29
710,16	195,32
710,35	305,91
710,55	312,05
710,74	385,78
710,93	295,67
711,12	320,25
711,32	146,17
711,51	258,81
711,70	156,41
711,90	299,77
712,09	191,22
712,28	250,61
712,47	316,15
712,67	250,61
712,86	295,67
713,05	303,86
713,24	236,28
713,44	277,24
713,63	226,04
713,82	162,55
714,02	217,85
714,21	285,43
714,40	217,85
714,59	199,42
714,79	199,42
714,98	213,75
715,17	246,52
715,36	201,46
715,56	258,81
715,75	244,47
715,94	267,00
716,13	262,90
716,33	287,48
716,52	178,94
716,71	226,04
716,90	283,38
717,10	230,13
717,29	213,75
717,48	336,63
717,67	197,37
717,87	314,10
718,06	293,62
718,25	301,81
718,44	269,05
718,63	299,77
718,83	90,87
719,02	168,70
719,21	205,56
719,40	234,23
719,60	264,95
719,79	240,37
719,98	240,37
720,17	174,84
720,36	226,04
720,56	154,36
720,75	135,93
720,94	244,47
721,13	242,42
721,33	338,68
721,52	101,11
721,71	183,03
721,90	310,01
722,09	219,89
722,29	264,95
722,48	203,51
722,67	275,19
722,86	361,20
723,05	236,28
723,24	303,86
723,44	242,42
723,63	240,37
723,82	262,90
724,01	146,17
724,20	303,86
724,40	133,88
724,59	209,66
724,78	217,85
724,97	234,23
725,16	262,90
725,35	275,19
725,55	277,24
725,74	340,73
725,93	328,44
726,12	209,66
726,31	248,57
726,51	301,81
726,70	205,56
726,89	273,14
727,08	285,43
727,27	256,76
727,46	279,29
727,65	283,38
727,85	221,94
728,04	203,51
728,23	197,37
728,42	269,05
728,61	293,62
728,80	203,51
729,00	279,29
729,19	242,42
729,38	303,86
729,57	242,42
729,76	152,31
729,95	297,72
730,14	254,71
730,33	240,37
730,53	213,75
730,72	183,03
730,91	223,99
731,10	332,53
731,29	373,49
731,48	223,99
731,67	209,66
731,86	289,53
732,06	258,81
732,25	199,42
732,44	256,76
732,63	189,18
732,82	305,91
733,01	223,99
733,20	228,09
733,39	275,19
733,59	215,80
733,78	240,37
733,97	295,67
734,16	232,18
734,35	256,76
734,54	316,15
734,73	221,94
734,92	154,36
735,11	217,85
735,30	170,74
735,49	244,47
735,69	365,30
735,88	197,37
736,07	273,14
736,26	199,42
736,45	223,99
736,64	129,78
736,83	232,18
737,02	267,00
737,21	221,94
737,40	160,50
737,59	359,16
737,78	137,98
737,98	267,00
738,17	199,42
738,36	285,43
738,55	217,85
738,74	205,56
738,93	283,38
739,12	115,45
739,31	238,33
739,50	109,30
739,69	324,34
739,88	189,18
740,07	191,22
740,26	297,72
740,45	316,15
740,64	217,85
740,83	176,89
741,02	158,46
741,22	178,94
741,41	250,61
741,60	297,72
741,79	207,61
741,98	154,36
742,17	172,79
742,36	211,70
742,55	146,17
742,74	359,16
742,93	287,48
743,12	240,37
743,31	189,18
743,50	152,31
743,69	219,89
743,88	185,08
744,07	140,02
744,26	289,53
744,45	172,79
744,64	320,25
744,83	197,37
745,02	150,26
745,21	148,22
745,40	168,70
745,59	207,61
745,78	217,85
745,97	223,99
746,16	344,82
746,35	178,94
746,54	174,84
746,73	168,70
746,92	232,18
747,11	156,41
747,30	146,17
747,49	269,05
747,68	211,70
747,87	129,78
748,06	217,85
748,25	219,89
748,44	152,31
748,63	254,71
748,82	107,26
749,01	162,55
749,20	154,36
749,39	193,27
749,58	191,22
749,77	219,89
749,96	146,17
750,15	203,51
750,34	156,41
750,53	180,98
750,72	226,04
750,91	140,02
751,10	342,77
751,29	170,74
751,48	160,50
751,67	68,35
751,86	160,50
752,04	254,71
752,23	217,85
752,42	166,65
752,61	156,41
752,80	180,98
752,99	99,06
753,18	219,89
753,37	295,67
753,56	49,91
753,75	123,64
753,94	109,30
754,13	232,18
754,32	172,79
754,51	146,17
754,70	226,04
754,89	203,51
755,08	221,94
755,27	154,36
755,45	201,46
755,64	187,13
755,83	230,13
756,02	254,71
756,21	137,98
756,40	154,36
756,59	195,32
756,78	107,26
756,97	62,20
757,16	176,89
757,35	303,86
757,54	137,98
757,72	166,65
757,91	76,54
758,10	240,37
758,29	101,11
758,48	242,42
758,67	111,35
758,86	156,41
759,05	180,98
759,24	205,56
759,43	113,40
759,61	94,97
759,80	148,22
759,99	189,18
760,18	213,75
760,37	146,17
760,56	92,92
760,75	207,61
760,94	217,85
761,13	189,18
761,31	236,28
761,50	170,74
761,69	113,40
761,88	152,31
762,07	70,39
762,26	189,18
762,45	121,59
762,64	187,13
762,82	68,35
763,01	248,57
763,20	209,66
763,39	172,79
763,58	103,16
763,77	154,36
763,96	209,66
764,14	146,17
764,33	148,22
764,52	180,98
764,71	219,89
764,90	211,70
765,09	135,93
765,27	119,54
765,46	135,93
765,65	119,54
765,84	148,22
766,03	232,18
766,22	121,59
766,41	101,11
766,59	217,85
766,78	168,70
766,97	99,06
767,16	131,83
767,35	193,27
767,54	207,61
767,72	209,66
767,91	146,17
768,10	74,49
768,29	135,93
768,48	135,93
768,66	232,18
768,85	156,41
769,04	140,02
769,23	226,04
769,42	170,74
769,61	113,40
769,79	203,51
769,98	178,94
770,17	133,88
770,36	205,56
770,55	90,87
770,73	195,32
770,92	172,79
771,11	217,85
771,30	133,88
771,49	133,88
771,67	267,00
771,86	156,41
772,05	62,20
772,24	131,83
772,42	60,15
772,61	170,74
772,80	64,25
772,99	66,30
773,18	219,89
773,36	60,15
773,55	82,68
773,74	60,15
773,93	160,50
774,11	35,58
774,30	172,79
774,49	66,30
774,68	234,23
774,87	172,79
775,05	4,86
775,24	68,35
775,43	178,94
775,62	137,98
775,80	230,13
775,99	170,74
776,18	250,61
776,37	156,41
776,55	236,28
776,74	109,30
776,93	97,02
777,12	146,17
777,30	158,46
777,49	90,87
777,68	107,26
777,87	133,88
778,05	0,76
778,24	101,11
778,43	176,89
778,62	78,59
778,80	174,84
778,99	234,23
779,18	144,12
779,36	187,13
779,55	78,59
779,74	207,61
779,93	129,78
780,11	221,94
780,30	92,92
780,49	193,27
780,68	107,26
780,86	234,23
781,05	101,11
781,24	164,60
781,42	267,00
781,61	144,12
781,80	103,16
781,98	166,65
782,17	152,31
782,36	103,16
782,55	45,82
782,73	121,59
782,92	305,91
783,11	86,78
783,29	51,96
783,48	170,74
783,67	125,69
783,85	68,35
784,04	172,79
784,23	131,83
784,42	135,93
784,60	127,74
784,79	160,50
784,98	144,12
785,16	152,31
785,35	54,01
785,54	94,97
785,72	168,70
785,91	154,36
786,10	-25,86
786,28	207,61
786,47	135,93
786,66	105,21
786,84	166,65
787,03	211,70
787,22	33,53
787,40	86,78
787,59	244,47
787,78	150,26
787,96	82,68
788,15	115,45
788,34	195,32
788,52	117,50
788,71	152,31
788,89	172,79
789,08	97,02
789,27	172,79
789,45	160,50
789,64	92,92
789,83	70,39
790,01	135,93
790,20	183,03
790,39	82,68
790,57	90,87
790,76	103,16
790,95	115,45
791,13	47,87
791,32	121,59
791,50	197,37
791,69	103,16
791,88	183,03
792,06	189,18
792,25	135,93
792,43	113,40
792,62	162,55
792,81	31,48
792,99	31,48
793,18	148,22
793,37	133,88
793,55	131,83
793,74	144,12
793,92	31,48
794,11	221,94
794,30	58,11
794,48	144,12
794,67	4,86
794,85	90,87
795,04	101,11
795,23	293,62
795,41	107,26
795,60	146,17
795,78	115,45
795,97	172,79
796,15	156,41
796,34	152,31
796,53	152,31
796,71	250,61
796,90	144,12
797,08	37,63
797,27	217,85
797,46	115,45
797,64	119,54
797,83	226,04
798,01	49,91
798,20	137,98
798,38	150,26
798,57	-11,53
798,76	-42,25
798,94	11,00
799,13	125,69
799,31	168,70
799,50	35,58
799,68	-32,01
799,87	-19,72
800,05	103,16
800,24	125,69
800,43	8,95
800,61	178,94
800,80	172,79
800,98	101,11
801,17	56,06
801,35	70,39
801,54	82,68
801,72	148,22
801,91	125,69
802,09	78,59
802,28	31,48
802,46	66,30
802,65	125,69
802,84	267,00
803,02	105,21
803,21	131,83
803,39	37,63
803,58	228,09
803,76	170,74
803,95	123,64
804,13	92,92
804,32	54,01
804,50	170,74
804,69	113,40
804,87	82,68
805,06	111,35
805,24	244,47
805,43	123,64
805,61	154,36
805,80	127,74
805,98	121,59
806,17	127,74
806,35	58,11
806,54	146,17
806,72	76,54
806,91	35,58
807,09	117,50
807,28	170,74
807,46	123,64
807,65	137,98
807,83	6,91
808,02	103,16
808,20	189,18
808,39	82,68
808,57	123,64
808,76	172,79
808,94	119,54
809,13	60,15
809,31	111,35
809,49	189,18
809,68	60,15
809,86	107,26
810,05	62,20
810,23	76,54
810,42	164,60
810,60	74,49
810,79	103,16
810,97	64,25
811,16	84,73
811,34	127,74
811,53	129,78
811,71	64,25
811,89	168,70
812,08	72,44
812,26	62,20
812,45	125,69
812,63	125,69
812,82	131,83
813,00	92,92
813,19	84,73
813,37	162,55
813,55	86,78
813,74	58,11
813,92	133,88
814,11	133,88
814,29	58,11
814,48	137,98
814,66	129,78
814,84	144,12
815,03	37,63
815,21	164,60
815,40	154,36
815,58	115,45
815,77	97,02
815,95	17,15
816,13	86,78
816,32	90,87
816,50	195,32
816,69	86,78
816,87	113,40
817,05	76,54
817,24	172,79
817,42	92,92
817,61	109,30
817,79	168,70
817,97	127,74
818,16	84,73
818,34	223,99
818,53	84,73
818,71	64,25
818,89	2,81
819,08	99,06
819,26	158,46
819,45	164,60
819,63	92,92
819,81	86,78
820,00	291,57
820,18	80,63
820,36	103,16
820,55	-29,96
820,73	19,19
820,92	62,20
821,10	70,39
821,28	103,16
821,47	193,27
821,65	103,16
821,83	203,51
822,02	27,39
822,20	97,02
822,39	121,59
822,57	92,92
822,75	58,11
822,94	11,00
823,12	115,45
823,30	17,15
823,49	279,29
823,67	107,26
823,85	160,50
824,04	-5,38
824,22	66,30
824,40	166,65
824,59	150,26
824,77	105,21
824,95	99,06
825,14	189,18
825,32	176,89
825,50	123,64
825,69	78,59
825,87	226,04
826,05	146,17
826,24	121,59
826,42	146,17
826,60	121,59
826,79	115,45
826,97	92,92
827,15	37,63
827,34	37,63
827,52	84,73
827,70	15,10
827,89	15,10
828,07	111,35
828,25	68,35
828,44	193,27
828,62	97,02
828,80	185,08
828,98	135,93
829,17	-9,48
829,35	115,45
829,53	115,45
829,72	99,06
829,90	162,55
830,08	119,54
830,27	117,50
830,45	178,94
830,63	58,11
830,81	101,11
831,00	109,30
831,18	123,64
831,36	109,30
831,55	-11,53
831,73	-11,53
831,91	2,81
832,09	111,35
832,28	121,59
832,46	121,59
832,64	107,26
832,82	-19,72
833,01	148,22
833,19	45,82
833,37	11,00
833,55	23,29
833,74	217,85
833,92	-7,43
834,10	133,88
834,29	56,06
834,47	78,59
834,65	101,11
834,83	35,58
835,02	19,19
835,20	72,44
835,38	105,21
835,56	166,65
835,75	70,39
835,93	94,97
836,11	6,91
836,29	-91,40
836,47	127,74
836,66	13,05
836,84	146,17
837,02	111,35
837,20	90,87
837,39	115,45
837,57	60,15
837,75	41,72
837,93	129,78
838,12	4,86
838,30	19,19
838,48	115,45
838,66	178,94
838,84	37,63
839,03	170,74
839,21	49,91
839,39	86,78
839,57	113,40
839,75	90,87
839,94	111,35
840,12	84,73
840,30	33,53
840,48	203,51
840,66	47,87
840,85	29,43
841,03	64,25
841,21	90,87
841,39	166,65
841,57	131,83
841,76	117,50
841,94	211,70
842,12	68,35
842,30	25,34
842,48	176,89
842,67	90,87
842,85	-1,29
843,03	78,59
843,21	107,26
843,39	170,74
843,57	70,39
843,76	72,44
843,94	49,91
844,12	105,21
844,30	4,86
844,48	62,20
844,66	107,26
844,85	123,64
845,03	123,64
845,21	15,10
845,39	205,56
845,57	94,97
845,75	74,49
845,94	74,49
846,12	123,64
846,30	82,68
846,48	111,35
846,66	146,17
846,84	-7,43
847,02	64,25
847,21	84,73
847,39	0,76
847,57	29,43
847,75	0,76
847,93	27,39
848,11	15,10
848,29	19,19
848,48	-15,62
848,66	90,87
848,84	74,49
849,02	60,15
849,20	62,20
849,38	127,74
849,56	90,87
849,74	103,16
849,93	94,97
850,11	109,30
850,29	142,07
850,47	99,06
850,65	17,15
850,83	23,29
851,01	54,01
851,19	119,54
851,37	82,68
851,56	58,11
851,74	74,49
851,92	27,39
852,10	-11,53
852,28	68,35
852,46	19,19
852,64	164,60
852,82	94,97
853,00	70,39
853,18	84,73
853,37	78,59
853,55	68,35
853,73	13,05
853,91	25,34
854,09	15,10
854,27	56,06
854,45	125,69
854,63	64,25
854,81	35,58
854,99	43,77
855,17	41,72
855,35	76,54
855,53	131,83
855,72	60,15
855,90	94,97
856,08	150,26
856,26	0,76
856,44	195,32
856,62	-109,83
856,80	107,26
856,98	62,20
857,16	37,63
857,34	62,20
857,52	164,60
857,70	115,45
857,88	76,54
858,06	11,00
858,24	119,54
858,42	223,99
858,60	66,30
858,78	49,91
858,96	86,78
859,15	125,69
859,33	80,63
859,51	41,72
859,69	94,97
859,87	80,63
860,05	133,88
860,23	97,02
860,41	70,39
860,59	113,40
860,77	142,07
860,95	72,44
861,13	115,45
861,31	90,87
861,49	-7,43
861,67	58,11
861,85	103,16
862,03	111,35
862,21	58,11
862,39	101,11
862,57	140,02
862,75	31,48
862,93	66,30
863,11	154,36
863,29	27,39
863,47	90,87
863,65	113,40
863,83	43,77
864,01	72,44
864,19	41,72
864,37	62,20
864,55	11,00
864,73	109,30
864,91	74,49
865,09	70,39
865,27	41,72
865,45	160,50
865,63	64,25
865,81	60,15
865,99	107,26
866,17	117,50
866,35	27,39
866,53	103,16
866,71	70,39
866,89	64,25
867,07	127,74
867,24	92,92
867,42	37,63
867,60	146,17
867,78	27,39
867,96	58,11
868,14	113,40
868,32	158,46
868,50	82,68
868,68	25,34
868,86	82,68
869,04	158,46
869,22	49,91
869,40	41,72
869,58	45,82
869,76	117,50
869,94	-72,96
870,12	4,86
870,30	60,15
870,48	76,54
870,66	82,68
870,83	92,92
871,01	94,97
871,19	-3,33
871,37	107,26
871,55	-34,05
871,73	15,10
871,91	64,25
872,09	111,35
872,27	117,50
872,45	2,81
872,63	66,30
872,81	31,48
872,98	64,25
873,16	117,50
873,34	160,50
873,52	51,96
873,70	125,69
873,88	97,02
874,06	-38,15
874,24	49,91
874,42	-15,62
874,60	0,76
874,78	-21,77
874,95	146,17
875,13	13,05
875,31	23,29
875,49	117,50
875,67	90,87
875,85	29,43
876,03	25,34
876,21	148,22
876,39	6,91
876,56	150,26
876,74	-17,67
876,92	64,25
877,10	121,59
877,28	39,67
877,46	-21,77
877,64	105,21
877,82	135,93
877,99	41,72
878,17	135,93
878,35	70,39
878,53	107,26
878,71	191,22
878,89	94,97
879,07	123,64
879,24	94,97
879,42	156,41
879,60	88,82
879,78	133,88
879,96	74,49
880,14	137,98
880,32	62,20
880,49	31,48
880,67	168,70
880,85	127,74
881,03	39,67
881,21	25,34
881,39	68,35
881,56	142,07
881,74	121,59
881,92	51,96
882,10	127,74
882,28	80,63
882,46	74,49
882,63	49,91
882,81	-34,05
882,99	37,63
883,17	72,44
883,35	76,54
883,52	99,06
883,70	107,26
883,88	-25,86
884,06	133,88
884,24	29,43
884,42	162,55
884,59	31,48
884,77	92,92
884,95	144,12
885,13	117,50
885,31	31,48
885,48	54,01
885,66	172,79
885,84	137,98
886,02	113,40
886,20	99,06
886,37	35,58
886,55	144,12
886,73	80,63
886,91	74,49
887,08	146,17
887,26	107,26
887,44	78,59
887,62	-5,38
887,80	92,92
887,97	90,87
888,15	99,06
888,33	58,11
888,51	39,67
888,68	115,45
888,86	56,06
889,04	25,34
889,22	133,88
889,40	58,11
889,57	60,15
889,75	123,64
889,93	56,06
890,11	121,59
890,28	90,87
890,46	66,30
890,64	82,68
890,82	92,92
890,99	35,58
891,17	-15,62
891,35	86,78
891,53	27,39
891,70	25,34
891,88	92,92
892,06	39,67
892,24	31,48
892,41	11,00
892,59	25,34
892,77	45,82
892,94	109,30
893,12	137,98
893,30	72,44
893,48	62,20
893,65	107,26
893,83	35,58
894,01	66,30
894,19	58,11
894,36	217,85
894,54	-32,01
894,72	94,97
894,89	31,48
895,07	56,06
895,25	105,21
895,43	-25,86
895,60	99,06
895,78	142,07
895,96	76,54
896,13	140,02
896,31	107,26
896,49	107,26
896,66	60,15
896,84	107,26
897,02	121,59
897,20	74,49
897,37	21,24
897,55	19,19
897,73	289,53
897,90	140,02
898,08	117,50
898,26	162,55
898,43	115,45
898,61	58,11
898,79	72,44
898,96	58,11
899,14	29,43
899,32	74,49
899,49	115,45
899,67	49,91
899,85	127,74
900,02	180,98
900,20	11,00
900,38	121,59
900,55	115,45
900,73	193,27
900,91	-29,96
901,08	72,44
901,26	74,49
901,44	49,91
901,61	92,92
901,79	105,21
901,97	133,88
902,14	80,63
902,32	64,25
902,50	13,05
902,67	60,15
902,85	125,69
903,02	82,68
903,20	49,91
903,38	109,30
903,55	17,15
903,73	111,35
903,91	68,35
904,08	125,69
904,26	88,82
904,44	174,84
904,61	17,15
904,79	51,96
904,96	123,64
905,14	92,92
905,32	101,11
905,49	51,96
905,67	-5,38
905,84	8,95
906,02	111,35
906,20	72,44
906,37	207,61
906,55	84,73
906,73	4,86
906,90	121,59
907,08	45,82
907,25	-19,72
907,43	125,69
907,61	17,15
907,78	60,15
907,96	33,53
908,13	109,30
908,31	152,31
908,48	37,63
908,66	72,44
908,84	99,06
909,01	133,88
909,19	78,59
909,36	92,92
909,54	37,63
909,72	107,26
909,89	0,76
910,07	41,72
910,24	123,64
910,42	172,79
910,59	-13,57
910,77	142,07
910,95	11,00
911,12	78,59
911,30	21,24
911,47	90,87
911,65	51,96
911,82	27,39
912,00	84,73
912,17	90,87
912,35	68,35
912,53	109,30
912,70	58,11
912,88	43,77
913,05	123,64
913,23	-23,81
913,40	152,31
913,58	33,53
913,75	62,20
913,93	54,01
914,10	-97,54
914,28	88,82
914,46	64,25
914,63	86,78
914,81	60,15
914,98	31,48
915,16	47,87
915,33	-54,53
915,51	62,20
915,68	105,21
915,86	99,06
916,03	-1,29
916,21	39,67
916,38	164,60
916,56	17,15
916,73	197,37
916,91	-32,01
917,08	41,72
917,26	113,40
917,43	74,49
917,61	33,53
917,78	152,31
917,96	21,24
918,13	39,67
918,31	123,64
918,48	33,53
918,66	19,19
918,83	189,18
919,01	35,58
919,18	51,96
919,36	-44,29
919,53	142,07
919,71	252,66
919,88	129,78
920,06	43,77
920,23	47,87
920,41	111,35
920,58	74,49
920,76	92,92
920,93	146,17
921,11	56,06
921,28	-1,29
921,45	154,36
921,63	33,53
921,80	17,15
921,98	97,02
922,15	19,19
922,33	58,11
922,50	56,06
922,68	33,53
922,85	76,54
923,03	72,44
923,20	203,51
923,38	117,50
923,55	164,60
923,72	60,15
923,90	297,72
924,07	-25,86
924,25	56,06
924,42	140,02
924,60	23,29
924,77	23,29
924,95	68,35
925,12	103,16
925,29	232,18
925,47	39,67
925,64	-60,68
925,82	8,95
925,99	41,72
926,17	43,77
926,34	109,30
926,51	76,54
926,69	58,11
926,86	170,74
927,04	74,49
927,21	51,96
927,38	17,15
927,56	68,35
927,73	191,22
927,91	76,54
928,08	303,86
928,25	33,53
928,43	115,45
928,60	84,73
928,78	209,66
928,95	23,29
929,12	74,49
929,30	113,40
929,47	140,02
929,65	51,96
929,82	33,53
929,99	54,01
930,17	-44,29
930,34	94,97
930,52	39,67
930,69	62,20
930,86	168,70
931,04	58,11
931,21	15,10
931,38	74,49
931,56	142,07
931,73	238,33
931,91	90,87
932,08	125,69
932,25	170,74
932,43	56,06
932,60	-40,20
932,77	109,30
932,95	68,35
933,12	-29,96
933,29	33,53
933,47	105,21
933,64	25,34
933,82	43,77
933,99	43,77
934,16	43,77
934,34	82,68
934,51	-7,43
934,68	101,11
934,86	156,41
935,03	70,39
935,20	47,87
935,38	2,81
935,55	23,29
935,72	125,69
935,90	45,82
936,07	103,16
936,24	27,39
936,42	187,13
936,59	76,54
936,76	101,11
936,94	19,19
937,11	92,92
937,28	88,82
937,46	37,63
937,63	88,82
937,80	68,35
937,97	187,13
938,15	88,82
938,32	41,72
938,49	125,69
938,67	4,86
938,84	111,35
939,01	92,92
939,19	-1,29
939,36	154,36
939,53	88,82
939,70	84,73
939,88	68,35
940,05	185,08
940,22	60,15
940,40	156,41
940,57	152,31
940,74	6,91
940,92	78,59
941,09	92,92
941,26	-1,29
941,43	142,07
941,61	49,91
941,78	4,86
941,95	117,50
942,12	47,87
942,30	51,96
942,47	119,54
942,64	15,10
942,82	97,02
942,99	187,13
943,16	37,63
943,33	162,55
943,51	45,82
943,68	109,30
943,85	-7,43
944,02	107,26
944,20	78,59
944,37	19,19
944,54	97,02
944,71	115,45
944,89	21,24
945,06	49,91
945,23	74,49
945,40	152,31
945,58	101,11
945,75	47,87
945,92	185,08
946,09	39,67
946,27	76,54
946,44	29,43
946,61	137,98
946,78	66,30
946,95	-25,86
947,13	62,20
947,30	72,44
947,47	51,96
947,64	13,05
947,82	-1,29
947,99	70,39
948,16	123,64
948,33	37,63
948,50	8,95
948,68	123,64
948,85	60,15
949,02	113,40
949,19	60,15
949,36	13,05
949,54	68,35
949,71	150,26
949,88	64,25
950,05	88,82
950,22	51,96
950,40	111,35
950,57	62,20
950,74	178,94
950,91	144,12
951,08	33,53
951,26	113,40
951,43	113,40
951,60	66,30
951,77	146,17
951,94	158,46
952,11	72,44
952,29	152,31
952,46	21,24
952,63	185,08
952,80	51,96
952,97	117,50
953,15	115,45
953,32	47,87
953,49	0,76
953,66	107,26
953,83	80,63
954,00	70,39
954,17	35,58
954,35	221,94
954,52	-11,53
954,69	74,49
954,86	215,80
955,03	29,43
955,20	97,02
955,38	43,77
955,55	113,40
955,72	183,03
955,89	27,39
956,06	152,31
956,23	21,24
956,40	29,43
956,58	51,96
956,75	72,44
956,92	-3,33
957,09	-29,96
957,26	41,72
957,43	17,15
957,60	43,77
957,77	66,30
957,95	33,53
958,12	105,21
958,29	178,94
958,46	109,30
958,63	-21,77
958,80	49,91
958,97	203,51
959,14	60,15
959,31	117,50
959,49	49,91
959,66	41,72
959,83	2,81
960,00	11,00
960,17	183,03
960,34	205,56
960,51	-27,91
960,68	183,03
960,85	135,93
961,02	56,06
961,20	64,25
961,37	21,24
961,54	90,87
961,71	64,25
961,88	103,16
962,05	4,86
962,22	127,74
962,39	68,35
962,56	49,91
962,73	78,59
962,90	-3,33
963,07	74,49
963,24	78,59
963,42	101,11
963,59	148,22
963,76	135,93
963,93	154,36
964,10	99,06
964,27	90,87
964,44	148,22
964,61	105,21
964,78	-44,29
964,95	80,63
965,12	47,87
965,29	174,84
965,46	-1,29
965,63	109,30
965,80	148,22
965,97	49,91
966,14	64,25
966,31	78,59
966,48	135,93
966,66	94,97
966,83	113,40
967,00	115,45
967,17	51,96
967,34	119,54
967,51	103,16
967,68	121,59
967,85	21,24
968,02	158,46
968,19	6,91
968,36	113,40
968,53	-19,72
968,70	60,15
968,87	129,78
969,04	47,87
969,21	-21,77
969,38	191,22
969,55	17,15
969,72	97,02
969,89	152,31
970,06	97,02
970,23	33,53
970,40	127,74
970,57	23,29
970,74	58,11
970,91	111,35
971,08	92,92
971,25	74,49
971,42	123,64
971,59	86,78
971,76	58,11
971,93	82,68
972,10	68,35
972,27	-5,38
972,44	88,82
972,61	105,21
972,78	60,15
972,95	158,46
973,12	152,31
973,29	82,68
973,46	84,73
973,63	68,35
973,80	60,15
973,97	39,67
974,14	154,36
974,30	123,64
974,47	101,11
974,64	166,65
974,81	84,73
974,98	234,23
975,15	76,54
975,32	27,39
975,49	45,82
975,66	2,81
975,83	168,70
976,00	162,55
976,17	17,15
976,34	68,35
976,51	76,54
976,68	6,91
976,85	58,11
977,02	121,59
977,19	72,44
977,36	62,20
977,52	117,50
977,69	156,41
977,86	232,18
978,03	8,95
978,20	148,22
978,37	86,78
978,54	189,18
978,71	180,98
978,88	215,80
979,05	76,54
979,22	41,72
979,39	107,26
979,56	78,59
979,72	-25,86
979,89	121,59
980,06	174,84
980,23	178,94
980,40	125,69
980,57	66,30
980,74	140,02
980,91	113,40
981,08	127,74
981,25	82,68
981,41	78,59
981,58	84,73
981,75	2,81
981,92	148,22
982,09	119,54
982,26	-11,53
982,43	-44,29
982,60	158,46
982,77	2,81
982,93	82,68
983,10	39,67
983,27	25,34
983,44	115,45
983,61	140,02
983,78	107,26
983,95	86,78
984,11	90,87
984,28	150,26
984,45	21,24
984,62	68,35
984,79	82,68
984,96	33,53
985,13	82,68
985,30	121,59
985,46	54,01
985,63	105,21
985,80	86,78
985,97	70,39
986,14	19,19
986,31	39,67
986,47	13,05
986,64	19,19
986,81	54,01
986,98	41,72
987,15	64,25
987,32	76,54
987,48	72,44
987,65	45,82
987,82	-27,91
987,99	135,93
988,16	559,86
988,33	250,61
988,49	82,68
988,66	62,20
988,83	74,49
989,00	189,18
989,17	-60,68
989,34	160,50
989,50	88,82
989,67	92,92
989,84	-23,81
990,01	66,30
990,18	117,50
990,34	107,26
990,51	70,39
990,68	111,35
990,85	172,79
991,02	135,93
991,18	58,11
991,35	11,00
991,52	164,60
991,69	35,58
991,86	123,64
992,02	68,35
992,19	-44,29
992,36	125,69
992,53	123,64
992,69	25,34
992,86	2,81
993,03	137,98
993,20	-7,43
993,37	137,98
993,53	103,16
993,70	25,34
993,87	-27,91
994,04	105,21
994,20	8,95
994,37	94,97
994,54	-11,53
994,71	39,67
994,87	119,54
995,04	105,21
995,21	56,06
995,38	66,30
995,55	62,20
995,71	37,63
995,88	56,06
996,05	107,26
996,22	148,22
996,38	76,54
996,55	-15,62
996,72	-15,62
996,88	213,75
997,05	1295,08
997,22	58,11
997,39	47,87
997,55	123,64
997,72	103,16
997,89	19,19
998,06	29,43
998,22	72,44
998,39	103,16
998,56	17,15
998,73	-38,15
998,89	39,67
999,06	11,00
999,23	123,64
999,39	37,63
999,56	133,88
999,73	68,35
999,90	-1,29
1000,06	129,78
1000,23	39,67
1000,40	101,11
1000,56	82,68
1000,73	15,10
1000,90	51,96
1001,06	82,68
1001,23	33,53
1001,40	135,93
1001,57	72,44
1001,73	76,54
1001,90	-64,77
1002,07	27,39
1002,23	88,82
1002,40	-7,43
1002,57	74,49
1002,73	86,78
1002,90	21,24
1003,07	164,60
1003,23	25,34
1003,40	31,48
1003,57	62,20
1003,73	2,81
1003,90	86,78
1004,07	25,34
1004,23	45,82
1004,40	105,21
1004,57	123,64
1004,73	-25,86
1004,90	66,30
1005,07	-21,77
1005,23	43,77
1005,40	39,67
1005,57	162,55
1005,73	125,69
1005,90	72,44
1006,07	45,82
1006,23	49,91
1006,40	113,40
1006,57	35,58
1006,73	107,26
1006,90	51,96
1007,06	99,06
1007,23	33,53
1007,40	2,81
1007,56	97,02
1007,73	90,87
1007,90	107,26
1008,06	31,48
1008,23	37,63
1008,40	158,46
1008,56	11,00
1008,73	58,11
1008,89	97,02
1009,06	125,69
1009,23	35,58
1009,39	43,77
1009,56	-81,16
1009,72	66,30
1009,89	99,06
1010,06	84,73
1010,22	39,67
1010,39	43,77
1010,55	74,49
1010,72	117,50
1010,89	15,10
1011,05	127,74
1011,22	74,49
1011,38	51,96
1011,55	15,10
1011,72	56,06
1011,88	49,91
1012,05	119,54
1012,21	119,54
1012,38	99,06
1012,55	80,63
1012,71	4,86
1012,88	121,59
1013,04	-7,43
1013,21	-40,20
1013,37	113,40
1013,54	31,48
1013,71	82,68
1013,87	68,35
1014,04	123,64
1014,20	137,98
1014,37	17,15
1014,53	109,30
1014,70	113,40
1014,87	29,43
1015,03	219,89
1015,20	76,54
1015,36	47,87
1015,53	33,53
1015,69	78,59
1015,86	51,96
1016,02	135,93
1016,19	125,69
1016,36	33,53
1016,52	8,95
1016,69	115,45
1016,85	97,02
1017,02	60,15
1017,18	15,10
1017,35	2,81
1017,51	45,82
1017,68	103,16
1017,84	-19,72
1018,01	-23,81
1018,17	121,59
1018,34	150,26
1018,50	39,67
1018,67	47,87
1018,84	160,50
1019,00	47,87
1019,17	86,78
1019,33	51,96
1019,50	142,07
1019,66	109,30
1019,83	4,86
1019,99	82,68
1020,16	13,05
1020,32	76,54
1020,49	140,02
1020,65	123,64
1020,82	123,64
1020,98	133,88
1021,15	66,30
1021,31	158,46
1021,48	35,58
1021,64	113,40
1021,81	140,02
1021,97	4,86
1022,14	68,35
1022,30	86,78
1022,47	60,15
1022,63	84,73
1022,79	99,06
1022,96	109,30
1023,12	74,49
1023,29	37,63
1023,45	168,70
1023,62	129,78
1023,78	105,21
1023,95	109,30
1024,11	105,21
1024,28	45,82
1024,44	45,82
1024,61	21,24
1024,77	82,68
1024,94	103,16
1025,10	119,54
1025,26	88,82
1025,43	90,87
1025,59	127,74
1025,76	129,78
1025,92	27,39
1026,09	8,95
1026,25	172,79
1026,42	-15,62
1026,58	15,10
1026,74	187,13
1026,91	97,02
1027,07	74,49
1027,24	193,27
1027,40	72,44
1027,57	94,97
1027,73	23,29
1027,90	101,11
1028,06	117,50
1028,22	162,55
1028,39	117,50
1028,55	92,92
1028,72	107,26
1028,88	221,94
1029,04	92,92
1029,21	123,64
1029,37	92,92
1029,54	103,16
1029,70	54,01
1029,87	-29,96
1030,03	11,00
1030,19	88,82
1030,36	17,15
1030,52	92,92
1030,69	-23,81
1030,85	45,82
1031,01	123,64
1031,18	72,44
1031,34	150,26
1031,50	21,24
1031,67	94,97
1031,83	80,63
1032,00	68,35
1032,16	99,06
1032,32	105,21
1032,49	131,83
1032,65	137,98
1032,82	121,59
1032,98	88,82
1033,14	19,19
1033,31	111,35
1033,47	111,35
1033,63	80,63
1033,80	144,12
1033,96	54,01
1034,13	86,78
1034,29	127,74
1034,45	35,58
1034,62	31,48
1034,78	146,17
1034,94	68,35
1035,11	221,94
1035,27	31,48
1035,43	64,25
1035,60	168,70
1035,76	-32,01
1035,92	51,96
1036,09	33,53
1036,25	97,02
1036,41	66,30
1036,58	201,46
1036,74	137,98
1036,90	94,97
1037,07	19,19
1037,23	8,95
1037,39	158,46
1037,56	8,95
1037,72	76,54
1037,88	80,63
1038,05	33,53
1038,21	121,59
1038,37	135,93
1038,54	97,02
1038,70	160,50
1038,86	90,87
1039,03	33,53
1039,19	45,82
1039,35	-36,10
1039,52	54,01
1039,68	13,05
1039,84	27,39
1040,00	121,59
1040,17	90,87
1040,33	-7,43
1040,49	72,44
1040,66	113,40
1040,82	4,86
1040,98	15,10
1041,15	51,96
1041,31	74,49
1041,47	101,11
1041,63	19,19
1041,80	66,30
1041,96	137,98
1042,12	19,19
1042,29	105,21
1042,45	201,46
1042,61	-77,06
1042,77	140,02
1042,94	168,70
1043,10	238,33
1043,26	60,15
1043,42	84,73
1043,59	180,98
1043,75	103,16
1043,91	78,59
1044,07	103,16
1044,24	25,34
1044,40	144,12
>>>>>End Processed Spectral Data<<<<<
