SpectraSuite Data File
++++++++++++++++++++++++++++++++++++
Date: Mon Nov 09 12:17:44 BRST 2020
User: Administrador
Dark Spectrum Present: No
Reference Spectrum Present: No
Number of Sampled Component Spectra: 1
Spectrometers: USB4F02573
Integration Time (usec): 100000 (USB4F02573)
Spectra Averaged: 1 (USB4F02573)
Boxcar Smoothing: 0 (USB4F02573)
Correct for Electrical Dark: Yes (USB4F02573)
Strobe/Lamp Enabled: No (USB4F02573)
Correct for Detector Non-linearity: No (USB4F02573)
Correct for Stray Light: No (USB4F02573)
Number of Pixels in Processed Spectrum: 3648
>>>>>Begin Processed Spectral Data<<<<<
345,22	-146,20
345,44	-146,20
345,66	-146,20
345,88	-129,82
346,10	-99,10
346,32	95,46
346,54	66,79
346,75	120,03
346,97	-2,84
347,19	132,32
347,41	46,31
347,63	97,51
347,85	21,73
348,07	68,83
348,29	120,03
348,51	89,31
348,73	72,93
348,95	11,49
349,16	89,31
349,38	128,23
349,60	181,47
349,82	158,95
350,04	72,93
350,26	210,14
350,48	208,10
350,70	195,81
350,92	117,99
351,14	89,31
351,35	185,57
351,57	175,33
351,79	177,38
352,01	136,42
352,23	95,46
352,45	113,89
352,67	132,32
352,89	115,94
353,10	204,00
353,32	146,66
353,54	228,58
353,76	197,86
353,98	193,76
354,20	191,71
354,42	154,85
354,64	111,84
354,85	212,19
355,07	187,62
355,29	117,99
355,51	117,99
355,73	122,08
355,95	31,97
356,17	201,95
356,38	109,79
356,60	189,66
356,82	156,90
357,04	15,59
357,26	124,13
357,48	210,14
357,69	177,38
357,91	105,70
358,13	99,55
358,35	267,49
358,57	183,52
358,79	212,19
359,01	236,77
359,22	156,90
359,44	228,58
359,66	249,06
359,88	36,07
360,10	177,38
360,32	146,66
360,53	97,51
360,75	183,52
360,97	175,33
361,19	152,80
361,41	216,29
361,62	169,18
361,84	146,66
362,06	169,18
362,28	72,93
362,50	195,81
362,72	152,80
362,93	70,88
363,15	72,93
363,37	130,27
363,59	150,75
363,81	126,18
364,02	232,67
364,24	146,66
364,46	195,81
364,68	122,08
364,90	292,06
365,11	216,29
365,33	216,29
365,55	81,12
365,77	31,97
365,99	101,60
366,20	247,01
366,42	222,43
366,64	124,13
366,86	144,61
367,07	197,86
367,29	50,40
367,51	91,36
367,73	138,47
367,95	199,90
368,16	171,23
368,38	208,10
368,60	150,75
368,82	87,27
369,03	296,16
369,25	234,72
369,47	138,47
369,69	134,37
369,91	220,38
370,12	85,22
370,34	77,03
370,56	111,84
370,78	273,63
370,99	218,34
371,21	195,81
371,43	62,69
371,65	-0,80
371,86	122,08
372,08	253,15
372,30	183,52
372,52	130,27
372,73	85,22
372,95	177,38
373,17	62,69
373,39	175,33
373,60	156,90
373,82	179,42
374,04	124,13
374,26	91,36
374,47	171,23
374,69	113,89
374,91	251,10
375,12	167,14
375,34	99,55
375,56	165,09
375,78	105,70
375,99	163,04
376,21	220,38
376,43	220,38
376,65	220,38
376,86	208,10
377,08	126,18
377,30	244,96
377,51	158,95
377,73	142,56
377,95	232,67
378,17	134,37
378,38	120,03
378,60	171,23
378,82	234,72
379,03	191,71
379,25	175,33
379,47	283,87
379,68	109,79
379,90	122,08
380,12	226,53
380,34	122,08
380,55	195,81
380,77	216,29
380,99	120,03
381,20	277,73
381,42	150,75
381,64	142,56
381,85	146,66
382,07	230,62
382,29	220,38
382,50	142,56
382,72	187,62
382,94	181,47
383,15	122,08
383,37	163,04
383,59	136,42
383,80	87,27
384,02	238,82
384,24	228,58
384,45	216,29
384,67	197,86
384,89	120,03
385,10	210,14
385,32	292,06
385,54	298,21
385,75	160,99
385,97	234,72
386,19	232,67
386,40	238,82
386,62	156,90
386,84	107,75
387,05	210,14
387,27	138,47
387,49	183,52
387,70	64,74
387,92	130,27
388,14	107,75
388,35	154,85
388,57	132,32
388,79	281,82
389,00	91,36
389,22	224,48
389,43	154,85
389,65	253,15
389,87	206,05
390,08	152,80
390,30	175,33
390,52	251,10
390,73	249,06
390,95	132,32
391,17	218,34
391,38	185,57
391,60	210,14
391,81	236,77
392,03	66,79
392,25	142,56
392,46	113,89
392,68	290,02
392,89	236,77
393,11	175,33
393,33	189,66
393,54	212,19
393,76	281,82
393,98	181,47
394,19	156,90
394,41	165,09
394,62	40,16
394,84	208,10
395,06	177,38
395,27	126,18
395,49	154,85
395,70	312,54
395,92	101,60
396,13	165,09
396,35	230,62
396,57	167,14
396,78	117,99
397,00	130,27
397,21	199,90
397,43	218,34
397,65	150,75
397,86	224,48
398,08	87,27
398,29	316,64
398,51	183,52
398,72	247,01
398,94	232,67
399,16	169,18
399,37	210,14
399,59	312,54
399,80	175,33
400,02	226,53
400,23	230,62
400,45	312,54
400,67	257,25
400,88	218,34
401,10	193,76
401,31	158,95
401,53	130,27
401,74	232,67
401,96	163,04
402,17	136,42
402,39	204,00
402,61	257,25
402,82	109,79
403,04	267,49
403,25	224,48
403,47	285,92
403,68	199,90
403,90	316,64
404,11	163,04
404,33	93,41
404,54	263,39
404,76	208,10
404,97	107,75
405,19	330,97
405,41	177,38
405,62	265,44
405,84	158,95
406,05	222,43
406,27	124,13
406,48	294,11
406,70	79,07
406,91	156,90
407,13	214,24
407,34	167,14
407,56	281,82
407,77	234,72
407,99	177,38
408,20	324,83
408,42	130,27
408,63	220,38
408,85	236,77
409,06	185,57
409,28	292,06
409,49	163,04
409,71	242,91
409,92	224,48
410,14	181,47
410,35	378,08
410,57	285,92
410,78	199,90
411,00	189,66
411,21	265,44
411,43	271,58
411,64	253,15
411,86	244,96
412,07	316,64
412,29	212,19
412,50	183,52
412,72	279,78
412,93	386,27
413,15	259,30
413,36	181,47
413,58	271,58
413,79	265,44
414,01	279,78
414,22	318,69
414,43	292,06
414,65	185,57
414,86	267,49
415,08	212,19
415,29	244,96
415,51	189,66
415,72	216,29
415,94	222,43
416,15	259,30
416,37	351,45
416,58	169,18
416,80	206,05
417,01	201,95
417,22	267,49
417,44	294,11
417,65	267,49
417,87	187,62
418,08	308,45
418,30	283,87
418,51	253,15
418,73	195,81
418,94	216,29
419,15	183,52
419,37	290,02
419,58	107,75
419,80	265,44
420,01	255,20
420,23	232,67
420,44	271,58
420,65	275,68
420,87	257,25
421,08	382,17
421,30	281,82
421,51	138,47
421,73	228,58
421,94	179,42
422,15	212,19
422,37	206,05
422,58	158,95
422,80	189,66
423,01	212,19
423,22	144,61
423,44	175,33
423,65	259,30
423,87	185,57
424,08	263,39
424,29	208,10
424,51	201,95
424,72	316,64
424,94	142,56
425,15	173,28
425,36	265,44
425,58	222,43
425,79	355,55
426,01	265,44
426,22	236,77
426,43	216,29
426,65	169,18
426,86	242,91
427,08	302,30
427,29	140,51
427,50	167,14
427,72	187,62
427,93	218,34
428,14	232,67
428,36	183,52
428,57	263,39
428,79	253,15
429,00	345,31
429,21	281,82
429,43	238,82
429,64	236,77
429,85	279,78
430,07	228,58
430,28	261,34
430,49	195,81
430,71	146,66
430,92	244,96
431,14	290,02
431,35	230,62
431,56	296,16
431,78	308,45
431,99	302,30
432,20	240,86
432,42	126,18
432,63	355,55
432,84	195,81
433,06	253,15
433,27	265,44
433,48	292,06
433,70	287,97
433,91	300,25
434,12	185,57
434,34	271,58
434,55	306,40
434,76	193,76
434,98	290,02
435,19	267,49
435,40	197,86
435,62	222,43
435,83	396,51
436,04	244,96
436,26	201,95
436,47	181,47
436,68	165,09
436,90	187,62
437,11	277,73
437,32	146,66
437,54	249,06
437,75	193,76
437,96	347,36
438,17	304,35
438,39	371,93
438,60	300,25
438,81	345,31
439,03	328,93
439,24	222,43
439,45	314,59
439,67	191,71
439,88	296,16
440,09	257,25
440,30	271,58
440,52	271,58
440,73	193,76
440,94	206,05
441,16	249,06
441,37	296,16
441,58	302,30
441,80	240,86
442,01	160,99
442,22	240,86
442,43	177,38
442,65	388,32
442,86	273,63
443,07	228,58
443,28	189,66
443,50	255,20
443,71	242,91
443,92	296,16
444,14	130,27
444,35	296,16
444,56	234,72
444,77	171,23
444,99	240,86
445,20	185,57
445,41	238,82
445,62	273,63
445,84	314,59
446,05	222,43
446,26	314,59
446,47	330,97
446,69	249,06
446,90	312,54
447,11	265,44
447,32	232,67
447,54	263,39
447,75	195,81
447,96	218,34
448,17	226,53
448,39	296,16
448,60	142,56
448,81	302,30
449,02	298,21
449,23	230,62
449,45	259,30
449,66	347,36
449,87	234,72
450,08	193,76
450,30	283,87
450,51	183,52
450,72	290,02
450,93	201,95
451,15	275,68
451,36	234,72
451,57	230,62
451,78	230,62
451,99	324,83
452,21	210,14
452,42	242,91
452,63	265,44
452,84	285,92
453,05	218,34
453,27	199,90
453,48	382,17
453,69	167,14
453,90	363,74
454,11	312,54
454,33	128,23
454,54	199,90
454,75	201,95
454,96	197,86
455,17	222,43
455,39	261,34
455,60	160,99
455,81	363,74
456,02	273,63
456,23	242,91
456,45	279,78
456,66	310,49
456,87	294,11
457,08	318,69
457,29	441,56
457,50	210,14
457,72	298,21
457,93	179,42
458,14	298,21
458,35	285,92
458,56	208,10
458,77	275,68
458,99	324,83
459,20	259,30
459,41	267,49
459,62	285,92
459,83	251,10
460,04	208,10
460,26	326,88
460,47	222,43
460,68	251,10
460,89	189,66
461,10	269,54
461,31	304,35
461,52	226,53
461,74	386,27
461,95	226,53
462,16	204,00
462,37	322,78
462,58	310,49
462,79	292,06
463,00	281,82
463,22	347,36
463,43	320,73
463,64	285,92
463,85	343,26
464,06	251,10
464,27	271,58
464,48	298,21
464,70	324,83
464,91	261,34
465,12	302,30
465,33	316,64
465,54	410,85
465,75	271,58
465,96	316,64
466,17	234,72
466,38	320,73
466,60	267,49
466,81	281,82
467,02	316,64
467,23	269,54
467,44	369,89
467,65	277,73
467,86	367,84
468,07	267,49
468,28	396,51
468,50	330,97
468,71	396,51
468,92	271,58
469,13	259,30
469,34	273,63
469,55	242,91
469,76	249,06
469,97	324,83
470,18	199,90
470,39	351,45
470,60	242,91
470,82	355,55
471,03	191,71
471,24	365,79
471,45	292,06
471,66	410,85
471,87	247,01
472,08	343,26
472,29	204,00
472,50	292,06
472,71	226,53
472,92	269,54
473,13	410,85
473,34	361,69
473,55	261,34
473,77	333,02
473,98	300,25
474,19	296,16
474,40	269,54
474,61	296,16
474,82	253,15
475,03	357,60
475,24	238,82
475,45	382,17
475,66	380,13
475,87	308,45
476,08	259,30
476,29	402,65
476,50	337,12
476,71	365,79
476,92	353,50
477,13	386,27
477,34	212,19
477,55	300,25
477,76	302,30
477,97	300,25
478,18	287,97
478,40	189,66
478,61	277,73
478,82	314,59
479,03	298,21
479,24	353,50
479,45	355,55
479,66	386,27
479,87	324,83
480,08	187,62
480,29	341,21
480,50	416,99
480,71	333,02
480,92	283,87
481,13	197,86
481,34	300,25
481,55	212,19
481,76	322,78
481,97	226,53
482,18	343,26
482,39	271,58
482,60	267,49
482,81	314,59
483,02	333,02
483,23	349,41
483,44	300,25
483,65	320,73
483,86	386,27
484,07	394,46
484,28	271,58
484,49	439,52
484,70	349,41
484,91	273,63
485,12	230,62
485,33	308,45
485,54	343,26
485,75	247,01
485,96	390,37
486,17	281,82
486,38	324,83
486,59	316,64
486,80	390,37
487,01	259,30
487,21	363,74
487,42	378,08
487,63	421,09
487,84	335,07
488,05	367,84
488,26	507,10
488,47	265,44
488,68	328,93
488,89	451,80
489,10	361,69
489,31	320,73
489,52	320,73
489,73	376,03
489,94	492,76
490,15	369,89
490,36	359,65
490,57	373,98
490,78	292,06
490,99	390,37
491,20	263,39
491,41	396,51
491,61	437,47
491,82	349,41
492,03	447,71
492,24	376,03
492,45	351,45
492,66	365,79
492,87	376,03
493,08	349,41
493,29	271,58
493,50	359,65
493,71	361,69
493,92	347,36
494,13	384,22
494,34	398,56
494,54	392,41
494,75	400,61
494,96	394,46
495,17	472,28
495,38	394,46
495,59	326,88
495,80	347,36
496,01	449,76
496,22	384,22
496,43	355,55
496,64	376,03
496,84	410,85
497,05	468,19
497,26	449,76
497,47	380,13
497,68	437,47
497,89	451,80
498,10	445,66
498,31	500,96
498,52	552,16
498,72	453,85
498,93	396,51
499,14	439,52
499,35	400,61
499,56	398,56
499,77	392,41
499,98	484,57
500,19	408,80
500,40	425,18
500,60	322,78
500,81	541,92
501,02	433,37
501,23	408,80
501,44	431,32
501,65	496,86
501,86	363,74
502,06	410,85
502,27	412,89
502,48	513,24
502,69	437,47
502,90	539,87
503,11	335,07
503,32	552,16
503,53	445,66
503,73	507,10
503,94	460,00
504,15	589,02
504,36	474,33
504,57	423,13
504,78	396,51
504,98	523,48
505,19	435,42
505,40	556,25
505,61	539,87
505,82	496,86
506,03	515,29
506,23	400,61
506,44	453,85
506,65	513,24
506,86	601,31
507,07	541,92
507,28	476,38
507,48	548,06
507,69	541,92
507,90	494,81
508,11	394,46
508,32	498,91
508,53	492,76
508,73	533,72
508,94	482,52
509,15	548,06
509,36	503,00
509,57	476,38
509,77	507,10
509,98	546,01
510,19	550,11
510,40	660,70
510,61	462,04
510,81	627,93
511,02	580,83
511,23	646,36
511,44	498,91
511,65	541,92
511,85	621,79
512,06	509,15
512,27	539,87
512,48	593,11
512,69	672,99
512,89	613,59
513,10	568,54
513,31	761,05
513,52	634,07
513,73	589,02
513,93	734,42
514,14	773,34
514,35	679,13
514,56	638,17
514,76	636,12
514,97	785,62
515,18	703,70
515,39	728,28
515,60	593,11
515,80	775,38
516,01	687,32
516,22	738,52
516,43	646,36
516,63	777,43
516,84	824,53
517,05	666,84
517,26	818,39
517,46	836,82
517,67	785,62
517,88	715,99
518,09	668,89
518,29	773,34
518,50	830,68
518,71	720,09
518,92	748,76
519,12	793,82
519,33	781,53
519,54	795,86
519,75	912,60
519,95	789,72
520,16	658,65
520,37	652,51
520,57	824,53
520,78	845,01
520,99	894,17
521,20	935,13
521,40	814,30
521,61	924,89
521,82	898,26
522,03	863,45
522,23	920,79
522,44	879,83
522,65	873,69
522,85	851,16
523,06	873,69
523,27	951,51
523,48	1045,72
523,68	955,60
523,89	1021,14
524,10	1086,67
524,30	1055,96
524,51	1017,04
524,72	955,60
524,93	924,89
525,13	1029,33
525,34	1074,39
525,55	1223,89
525,75	1184,98
525,96	1117,39
526,17	1170,64
526,37	1303,76
526,58	1064,15
526,79	1193,17
526,99	1139,92
527,20	1180,88
527,41	1141,97
527,62	1256,66
527,82	1334,48
528,03	1258,70
528,24	1256,66
528,44	1397,97
528,65	1252,56
528,86	1447,12
529,06	1383,63
529,27	1436,88
529,48	1506,51
529,68	1522,89
529,89	1488,08
530,10	1488,08
530,30	1606,86
530,51	1576,14
530,72	1627,34
530,92	1639,63
531,13	1670,35
531,34	1758,41
531,54	1711,31
531,75	1789,13
531,96	1936,58
532,16	1803,46
532,37	1885,38
532,57	1854,66
532,78	1891,53
532,99	1944,77
533,19	2038,98
533,40	1998,02
533,61	1930,44
533,81	2090,18
534,02	2186,43
534,23	1985,73
534,43	2135,23
534,64	2270,40
534,84	2272,45
535,05	2241,73
535,26	2444,48
535,46	2383,04
535,67	2458,81
535,88	2378,94
536,08	2495,68
536,29	2430,14
536,49	2620,60
536,70	2700,47
536,91	2559,16
537,11	2776,25
537,32	2694,33
537,53	2966,71
537,73	3022,01
537,94	2847,93
538,14	2991,29
538,35	2993,33
538,56	3216,56
538,76	3206,32
538,97	3357,87
539,17	3212,47
539,38	3431,60
539,59	3443,89
539,79	3394,74
540,00	3513,52
540,20	3497,13
540,41	3695,79
540,62	3859,62
540,82	3892,39
541,03	3742,89
541,23	4005,03
541,44	4027,56
541,64	4150,44
541,85	4234,40
542,06	4263,07
542,26	4340,90
542,47	4566,17
542,67	4627,61
542,88	4625,56
543,08	4707,48
543,29	4775,07
543,50	4934,81
543,70	5115,03
543,91	5065,88
544,11	4983,96
544,32	5399,70
544,52	5360,79
544,73	5293,20
544,94	5432,46
545,14	5504,14
545,35	5721,23
545,55	5964,94
545,76	5995,66
545,96	6048,90
546,17	6132,87
546,37	6431,87
546,58	6642,81
546,78	6640,77
546,99	6653,05
547,20	6913,15
547,40	6943,87
547,61	7296,12
547,81	7255,16
548,02	7570,54
548,22	7621,74
548,43	8025,19
548,63	7930,99
548,84	8086,63
549,04	8240,23
549,25	8541,28
549,45	8537,19
549,66	8850,52
549,86	8897,63
550,07	9192,54
550,27	9417,81
550,48	9755,73
550,69	9882,70
550,89	10314,82
551,10	10089,55
551,30	10560,58
551,51	10519,62
551,71	10951,74
551,92	11242,55
552,12	11729,97
552,33	11566,13
552,53	11852,85
552,74	12287,02
552,94	12647,46
553,15	12626,98
553,35	12891,17
553,56	13345,82
553,76	13558,80
553,97	13810,70
554,17	14314,51
554,38	14613,51
554,58	15232,00
554,79	15217,66
554,99	15291,39
555,19	15823,86
555,40	16372,71
555,60	16530,41
555,81	17081,31
556,01	17374,17
556,22	17773,52
556,42	18021,33
556,63	18322,38
556,83	18639,82
557,04	19506,11
557,24	19717,05
557,45	19946,42
557,65	20251,57
557,86	21035,94
558,06	21425,05
558,27	21527,45
558,47	22326,16
558,67	22926,21
558,88	22954,89
559,08	23421,82
559,29	23808,89
559,49	24349,55
559,70	24202,10
559,90	25052,01
560,11	25264,99
560,31	25654,11
560,52	26006,36
560,72	26594,13
560,92	26809,16
561,13	27284,29
561,33	27568,96
561,54	28365,62
561,74	28177,21
561,95	28572,46
562,15	28963,63
562,35	29352,74
562,56	29655,84
562,76	29952,79
562,97	29874,97
563,17	30632,72
563,38	30489,36
563,58	30798,61
563,78	31206,15
563,99	31226,63
564,19	31347,46
564,40	32090,87
564,60	31896,32
564,80	32400,12
565,01	32461,56
565,21	32746,22
565,42	32846,57
565,62	32475,89
565,83	33061,61
566,03	33495,78
566,23	33405,67
566,44	33696,48
566,64	33407,72
566,85	34038,49
567,05	33893,09
567,25	34319,06
567,46	33954,53
567,66	34558,68
567,86	33714,91
568,07	34030,30
568,27	34595,54
568,48	34521,81
568,68	34861,78
568,88	34411,22
569,09	34212,57
569,29	34837,20
569,50	34624,21
569,70	34861,78
569,90	34460,37
570,11	35435,21
570,31	34042,59
570,51	35037,90
570,72	34495,19
570,92	34951,89
571,13	34482,90
571,33	34413,27
571,53	34214,62
571,74	34347,74
571,94	34437,85
572,14	34247,38
572,35	34054,88
572,55	33911,52
572,75	33420,01
572,96	33915,61
573,16	33762,02
573,36	33712,87
573,57	33200,87
573,77	33534,69
573,97	33282,79
574,18	32971,50
574,38	32514,80
574,59	32944,88
574,79	31777,53
574,99	32424,69
575,20	31666,94
575,40	31972,09
575,60	31310,60
575,81	31312,65
576,01	30700,30
576,21	31165,19
576,42	30335,76
576,62	30364,44
576,82	29694,75
577,02	30122,78
577,23	29598,50
577,43	29659,93
577,63	28549,94
577,84	29041,45
578,04	28367,67
578,24	28076,86
578,45	27996,98
578,65	27704,12
578,85	26948,42
579,06	27489,09
579,26	27052,87
579,46	27024,20
579,67	26229,59
579,87	26301,27
580,07	25746,27
580,27	25271,14
580,48	25437,02
580,68	25090,92
580,88	24757,10
581,09	25002,85
581,29	23671,67
581,49	23841,66
581,69	23624,57
581,90	23626,62
582,10	22987,65
582,30	22999,94
582,51	22303,63
582,71	22518,67
582,91	22098,83
583,11	22086,55
583,32	21361,57
583,52	21214,11
583,72	20753,32
583,93	21111,71
584,13	20702,12
584,33	20532,14
584,53	20157,36
584,74	20212,66
584,94	19499,96
585,14	19624,89
585,34	19379,13
585,55	18897,86
585,75	18834,37
585,95	18574,28
586,15	18564,04
586,36	18262,99
586,56	17812,44
586,76	17900,50
586,96	17368,03
587,17	17279,96
587,37	16968,67
587,57	16997,34
587,77	16364,52
587,98	16712,68
588,18	16235,50
588,38	16126,96
588,58	15877,11
588,79	15807,47
588,99	15614,97
589,19	15406,07
589,39	15088,64
589,60	15291,39
589,80	14859,26
590,00	14773,25
590,20	14386,18
590,40	14134,28
590,61	13642,77
590,81	14013,45
591,01	13743,12
591,21	13710,35
591,42	13001,76
591,62	13104,16
591,82	12903,45
592,02	12882,97
592,22	12854,30
592,43	12639,27
592,63	12377,13
592,83	12104,75
593,03	12055,60
593,23	12051,50
593,44	11766,83
593,64	11525,17
593,84	11455,54
594,04	11222,07
594,24	11004,99
594,45	10859,58
594,65	10802,24
594,85	10765,38
595,05	10619,97
595,25	10447,94
595,46	10269,77
595,66	9997,39
595,86	10232,90
596,06	10048,59
596,26	9583,70
596,46	9653,33
596,67	9329,75
596,87	9464,92
597,07	9149,53
597,27	9079,90
597,47	8813,66
597,67	8782,94
597,88	8782,94
598,08	8828,00
598,28	8543,33
598,48	8252,52
598,68	8399,97
598,88	8334,44
599,09	8066,15
599,29	7890,03
599,49	7785,58
599,69	7699,57
599,89	7640,17
600,09	7617,65
600,30	7447,67
600,50	7418,99
600,70	7537,78
600,90	7197,81
601,10	7023,74
601,30	6718,59
601,50	6843,52
601,71	6771,84
601,91	6777,98
602,11	6476,93
602,31	6569,09
602,51	6552,70
602,71	6151,30
602,91	6255,75
603,11	5938,31
603,32	6067,33
603,52	5926,03
603,72	5950,60
603,92	5780,62
604,12	5762,19
604,32	5641,36
604,52	5600,40
604,72	5416,08
604,93	5549,20
605,13	5332,11
605,33	5360,79
605,53	5164,18
605,73	5090,45
605,93	5174,42
606,13	4934,81
606,33	5137,56
606,53	4807,83
606,74	4969,62
606,94	4770,97
607,14	4584,61
607,34	4637,85
607,54	4449,44
607,74	4443,30
607,94	4404,38
608,14	4443,30
608,34	4195,49
608,54	4273,31
608,74	4232,35
608,95	4205,73
609,15	4093,09
609,35	3914,92
609,55	3796,14
609,75	3962,02
609,95	3841,19
610,15	3640,49
610,35	3830,95
610,55	3597,48
610,75	3572,91
610,95	3540,14
611,15	3595,44
611,35	3677,36
611,55	3511,47
611,76	3441,84
611,96	3384,50
612,16	3368,11
612,36	3359,92
612,56	3425,46
612,76	3323,06
612,96	3206,32
613,16	3327,15
613,36	3052,72
613,56	3118,26
613,76	3169,46
613,96	2856,12
614,16	2991,29
614,36	2731,19
614,56	2911,42
614,76	2864,31
614,96	2679,99
615,16	2690,23
615,36	2585,79
615,56	2636,99
615,76	2534,59
615,97	2610,36
616,17	2575,55
616,37	2518,21
616,57	2518,21
616,77	2473,15
616,97	2561,21
617,17	2387,14
617,37	2460,86
617,57	2333,89
617,77	2305,22
617,97	2399,42
618,17	2258,11
618,37	2221,25
618,57	2251,97
618,77	2249,92
618,97	2294,98
619,17	2114,76
619,37	2184,39
619,57	2125,00
619,77	2079,94
619,97	2043,08
620,17	2047,17
620,37	2008,26
620,57	2032,84
620,77	2069,70
620,97	2000,07
621,17	1940,68
621,37	1789,13
621,57	1832,14
621,77	1768,65
621,97	1709,26
622,17	1742,02
622,37	1750,22
622,57	1762,50
622,77	1680,59
622,97	1729,74
623,17	1793,22
623,37	1764,55
623,57	1717,45
623,77	1580,24
623,97	1510,60
624,16	1500,36
624,36	1617,10
624,56	1483,98
624,76	1524,94
624,96	1541,32
625,16	1529,04
625,36	1408,21
625,56	1473,74
625,76	1453,26
625,96	1389,77
626,16	1389,77
626,36	1412,30
626,56	1529,04
626,76	1408,21
626,96	1295,57
627,16	1371,34
627,36	1311,95
627,56	1459,41
627,76	1410,25
627,96	1273,04
628,16	1385,68
628,35	1377,49
628,55	1320,14
628,75	1303,76
628,95	1221,84
629,15	1256,66
629,35	1211,60
629,55	1168,59
629,75	1314,00
629,95	1260,75
630,15	1352,91
630,35	1152,21
630,55	1207,51
630,75	1062,10
630,95	1307,86
631,14	1029,33
631,34	1193,17
631,54	1094,87
631,74	1162,45
631,94	1068,24
632,14	1049,81
632,34	1033,43
632,54	1144,02
632,74	953,56
632,94	1043,67
633,14	1131,73
633,33	920,79
633,53	967,89
633,73	1256,66
633,93	1055,96
634,13	1105,11
634,33	1031,38
634,53	986,32
634,73	1078,48
634,93	949,46
635,12	1002,71
635,32	1062,10
635,52	894,17
635,72	883,93
635,92	875,73
636,12	1111,25
636,32	881,88
636,52	961,75
636,71	845,01
636,91	996,56
637,11	847,06
637,31	939,22
637,51	845,01
637,71	982,23
637,91	990,42
638,11	896,21
638,30	789,72
638,50	785,62
638,70	916,69
638,90	851,16
639,10	789,72
639,30	779,48
639,50	765,14
639,69	863,45
639,89	705,75
640,09	769,24
640,29	859,35
640,49	773,34
640,69	812,25
640,88	797,91
641,08	826,58
641,28	836,82
641,48	849,11
641,68	775,38
641,88	797,91
642,07	736,47
642,27	906,45
642,47	720,09
642,67	742,62
642,87	718,04
643,07	761,05
643,26	761,05
643,46	769,24
643,66	763,10
643,86	754,90
644,06	820,44
644,26	763,10
644,45	701,66
644,65	681,18
644,85	761,05
645,05	720,09
645,25	861,40
645,44	611,55
645,64	726,23
645,84	804,06
646,04	658,65
646,24	650,46
646,43	818,39
646,63	814,30
646,83	664,79
647,03	627,93
647,23	675,03
647,42	656,60
647,62	705,75
647,82	662,75
648,02	580,83
648,22	818,39
648,41	685,27
648,61	699,61
648,81	652,51
649,01	695,51
649,20	638,17
649,40	629,98
649,60	754,90
649,80	668,89
650,00	670,94
650,19	523,48
650,39	642,27
650,59	693,46
650,79	658,65
650,98	668,89
651,18	552,16
651,38	632,03
651,58	595,16
651,77	595,16
651,97	621,79
652,17	560,35
652,37	664,79
652,56	529,63
652,76	511,20
652,96	629,98
653,16	543,96
653,35	564,44
653,55	570,59
653,75	578,78
653,95	756,95
654,14	562,39
654,34	550,11
654,54	507,10
654,74	619,74
654,93	617,69
655,13	560,35
655,33	490,72
655,52	572,63
655,72	574,68
655,92	539,87
656,12	552,16
656,31	474,33
656,51	615,64
656,71	591,07
656,91	586,97
657,10	500,96
657,30	519,39
657,50	548,06
657,69	568,54
657,89	541,92
658,09	568,54
658,29	629,98
658,48	503,00
658,68	593,11
658,88	627,93
659,07	572,63
659,27	546,01
659,47	519,39
659,66	658,65
659,86	490,72
660,06	543,96
660,26	503,00
660,45	572,63
660,65	611,55
660,85	513,24
661,04	453,85
661,24	562,39
661,44	441,56
661,63	445,66
661,83	576,73
662,03	550,11
662,22	568,54
662,42	539,87
662,62	509,15
662,81	396,51
663,01	570,59
663,21	558,30
663,40	472,28
663,60	546,01
663,80	433,37
663,99	609,50
664,19	543,96
664,39	568,54
664,58	541,92
664,78	539,87
664,98	359,65
665,17	451,80
665,37	439,52
665,57	539,87
665,76	533,72
665,96	449,76
666,16	511,20
666,35	550,11
666,55	558,30
666,74	531,68
666,94	613,59
667,14	535,77
667,33	509,15
667,53	406,75
667,73	453,85
667,92	521,44
668,12	519,39
668,32	472,28
668,51	445,66
668,71	449,76
668,90	390,37
669,10	445,66
669,30	431,32
669,49	447,71
669,69	584,92
669,89	507,10
670,08	464,09
670,28	740,57
670,47	455,90
670,67	457,95
670,87	470,24
671,06	490,72
671,26	441,56
671,45	382,17
671,65	576,73
671,85	386,27
672,04	486,62
672,24	388,32
672,43	410,85
672,63	482,52
672,83	324,83
673,02	386,27
673,22	335,07
673,41	441,56
673,61	355,55
673,81	468,19
674,00	566,49
674,20	359,65
674,39	410,85
674,59	457,95
674,78	365,79
674,98	480,48
675,18	488,67
675,37	396,51
675,57	390,37
675,76	433,37
675,96	453,85
676,15	330,97
676,35	343,26
676,55	416,99
676,74	425,18
676,94	412,89
677,13	353,50
677,33	488,67
677,52	474,33
677,72	345,31
677,91	326,88
678,11	330,97
678,31	343,26
678,50	388,32
678,70	314,59
678,89	453,85
679,09	406,75
679,28	376,03
679,48	429,28
679,67	414,94
679,87	269,54
680,06	658,65
680,26	425,18
680,46	482,52
680,65	394,46
680,85	425,18
681,04	427,23
681,24	380,13
681,43	316,64
681,63	380,13
681,82	351,45
682,02	345,31
682,21	503,00
682,41	347,36
682,60	519,39
682,80	378,08
682,99	394,46
683,19	394,46
683,38	416,99
683,58	337,12
683,77	380,13
683,97	384,22
684,16	494,81
684,36	316,64
684,55	310,49
684,75	300,25
684,94	363,74
685,14	378,08
685,33	353,50
685,53	380,13
685,72	345,31
685,92	359,65
686,11	251,10
686,31	339,17
686,50	464,09
686,70	359,65
686,89	326,88
687,09	328,93
687,28	369,89
687,48	279,78
687,67	396,51
687,87	402,65
688,06	320,73
688,26	404,70
688,45	371,93
688,65	290,02
688,84	376,03
689,03	308,45
689,23	232,67
689,42	490,72
689,62	353,50
689,81	419,04
690,01	439,52
690,20	351,45
690,40	277,73
690,59	392,41
690,79	310,49
690,98	386,27
691,17	345,31
691,37	388,32
691,56	302,30
691,76	390,37
691,95	425,18
692,15	285,92
692,34	425,18
692,54	371,93
692,73	363,74
692,92	421,09
693,12	343,26
693,31	367,84
693,51	373,98
693,70	384,22
693,90	384,22
694,09	359,65
694,28	320,73
694,48	365,79
694,67	371,93
694,87	408,80
695,06	421,09
695,26	421,09
695,45	306,40
695,64	361,69
695,84	265,44
696,03	261,34
696,23	380,13
696,42	265,44
696,61	390,37
696,81	349,41
697,00	294,11
697,20	335,07
697,39	300,25
697,58	240,86
697,78	351,45
697,97	376,03
698,17	347,36
698,36	300,25
698,55	279,78
698,75	441,56
698,94	355,55
699,14	300,25
699,33	292,06
699,52	328,93
699,72	451,80
699,91	308,45
700,10	355,55
700,30	249,06
700,49	263,39
700,69	234,72
700,88	371,93
701,07	218,34
701,27	363,74
701,46	474,33
701,65	271,58
701,85	306,40
702,04	451,80
702,23	318,69
702,43	244,96
702,62	287,97
702,82	355,55
703,01	416,99
703,20	341,21
703,40	310,49
703,59	371,93
703,78	330,97
703,98	277,73
704,17	326,88
704,36	388,32
704,56	460,00
704,75	253,15
704,94	277,73
705,14	345,31
705,33	386,27
705,52	322,78
705,72	302,30
705,91	316,64
706,10	320,73
706,30	373,98
706,49	396,51
706,68	314,59
706,88	390,37
707,07	326,88
707,26	273,63
707,46	275,68
707,65	371,93
707,84	318,69
708,04	287,97
708,23	398,56
708,42	283,87
708,62	232,67
708,81	285,92
709,00	396,51
709,19	240,86
709,39	369,89
709,58	363,74
709,77	322,78
709,97	255,20
710,16	285,92
710,35	328,93
710,55	308,45
710,74	353,50
710,93	335,07
711,12	294,11
711,32	287,97
711,51	388,32
711,70	238,82
711,90	283,87
712,09	322,78
712,28	349,41
712,47	308,45
712,67	265,44
712,86	423,13
713,05	347,36
713,24	304,35
713,44	335,07
713,63	363,74
713,82	324,83
714,02	347,36
714,21	410,85
714,40	265,44
714,59	373,98
714,79	281,82
714,98	302,30
715,17	486,62
715,36	304,35
715,56	404,70
715,75	386,27
715,94	292,06
716,13	328,93
716,33	255,20
716,52	361,69
716,71	363,74
716,90	308,45
717,10	302,30
717,29	247,01
717,48	439,52
717,67	314,59
717,87	369,89
718,06	330,97
718,25	404,70
718,44	369,89
718,63	406,75
718,83	275,68
719,02	255,20
719,21	339,17
719,40	247,01
719,60	251,10
719,79	316,64
719,98	292,06
720,17	163,04
720,36	269,54
720,56	365,79
720,75	216,29
720,94	292,06
721,13	396,51
721,33	349,41
721,52	287,97
721,71	335,07
721,90	433,37
722,09	287,97
722,29	341,21
722,48	255,20
722,67	240,86
722,86	552,16
723,05	283,87
723,24	337,12
723,44	212,19
723,63	302,30
723,82	353,50
724,01	265,44
724,20	371,93
724,40	333,02
724,59	310,49
724,78	263,39
724,97	296,16
725,16	351,45
725,35	326,88
725,55	355,55
725,74	251,10
725,93	363,74
726,12	355,55
726,31	396,51
726,51	398,56
726,70	394,46
726,89	279,78
727,08	318,69
727,27	392,41
727,46	345,31
727,65	328,93
727,85	216,29
728,04	296,16
728,23	251,10
728,42	283,87
728,61	308,45
728,80	265,44
729,00	326,88
729,19	406,75
729,38	433,37
729,57	271,58
729,76	240,86
729,95	480,48
730,14	318,69
730,33	267,49
730,53	236,77
730,72	259,30
730,91	261,34
731,10	404,70
731,29	414,94
731,48	314,59
731,67	285,92
731,86	333,02
732,06	333,02
732,25	343,26
732,44	386,27
732,63	265,44
732,82	425,18
733,01	376,03
733,20	300,25
733,39	324,83
733,59	326,88
733,78	367,84
733,97	330,97
734,16	353,50
734,35	369,89
734,54	294,11
734,73	347,36
734,92	265,44
735,11	292,06
735,30	341,21
735,49	326,88
735,69	406,75
735,88	400,61
736,07	308,45
736,26	263,39
736,45	335,07
736,64	290,02
736,83	349,41
737,02	339,17
737,21	324,83
737,40	300,25
737,59	492,76
737,78	238,82
737,98	359,65
738,17	296,16
738,36	392,41
738,55	255,20
738,74	335,07
738,93	300,25
739,12	234,72
739,31	220,38
739,50	265,44
739,69	359,65
739,88	373,98
740,07	322,78
740,26	339,17
740,45	349,41
740,64	296,16
740,83	283,87
741,02	242,91
741,22	369,89
741,41	349,41
741,60	388,32
741,79	283,87
741,98	345,31
742,17	201,95
742,36	367,84
742,55	228,58
742,74	562,39
742,93	369,89
743,12	308,45
743,31	257,25
743,50	320,73
743,69	339,17
743,88	294,11
744,07	267,49
744,26	500,96
744,45	349,41
744,64	404,70
744,83	316,64
745,02	232,67
745,21	277,73
745,40	306,40
745,59	408,80
745,78	271,58
745,97	353,50
746,16	367,84
746,35	326,88
746,54	298,21
746,73	263,39
746,92	355,55
747,11	242,91
747,30	240,86
747,49	330,97
747,68	339,17
747,87	265,44
748,06	359,65
748,25	318,69
748,44	263,39
748,63	392,41
748,82	224,48
749,01	273,63
749,20	265,44
749,39	310,49
749,58	294,11
749,77	287,97
749,96	230,62
750,15	249,06
750,34	242,91
750,53	306,40
750,72	421,09
750,91	171,23
751,10	369,89
751,29	218,34
751,48	208,10
751,67	230,62
751,86	290,02
752,04	339,17
752,23	283,87
752,42	232,67
752,61	292,06
752,80	404,70
752,99	187,62
753,18	308,45
753,37	322,78
753,56	115,94
753,75	240,86
753,94	228,58
754,13	304,35
754,32	234,72
754,51	185,57
754,70	273,63
754,89	216,29
755,08	283,87
755,27	265,44
755,45	242,91
755,64	265,44
755,83	369,89
756,02	296,16
756,21	240,86
756,40	249,06
756,59	300,25
756,78	146,66
756,97	249,06
757,16	242,91
757,35	404,70
757,54	273,63
757,72	371,93
757,91	228,58
758,10	324,83
758,29	224,48
758,48	328,93
758,67	310,49
758,86	240,86
759,05	281,82
759,24	294,11
759,43	341,21
759,61	204,00
759,80	236,77
759,99	257,25
760,18	314,59
760,37	298,21
760,56	244,96
760,75	341,21
760,94	292,06
761,13	353,50
761,31	298,21
761,50	232,67
761,69	255,20
761,88	251,10
762,07	169,18
762,26	367,84
762,45	230,62
762,64	341,21
762,82	160,99
763,01	361,69
763,20	218,34
763,39	242,91
763,58	271,58
763,77	160,99
763,96	228,58
764,14	267,49
764,33	193,76
764,52	249,06
764,71	285,92
764,90	259,30
765,09	232,67
765,27	290,02
765,46	253,15
765,65	156,90
765,84	337,12
766,03	257,25
766,22	167,14
766,41	261,34
766,59	247,01
766,78	204,00
766,97	195,81
767,16	339,17
767,35	193,76
767,54	298,21
767,72	269,54
767,91	339,17
768,10	183,52
768,29	187,62
768,48	212,19
768,66	275,68
768,85	312,54
769,04	173,28
769,23	206,05
769,42	294,11
769,61	281,82
769,79	298,21
769,98	228,58
770,17	210,14
770,36	279,78
770,55	169,18
770,73	273,63
770,92	275,68
771,11	300,25
771,30	160,99
771,49	281,82
771,67	296,16
771,86	185,57
772,05	195,81
772,24	234,72
772,42	187,62
772,61	281,82
772,80	124,13
772,99	201,95
773,18	191,71
773,36	195,81
773,55	230,62
773,74	240,86
773,93	236,77
774,11	134,37
774,30	384,22
774,49	216,29
774,68	236,77
774,87	244,96
775,05	175,33
775,24	212,19
775,43	283,87
775,62	206,05
775,80	326,88
775,99	271,58
776,18	339,17
776,37	199,90
776,55	234,72
776,74	238,82
776,93	158,95
777,12	292,06
777,30	226,53
777,49	247,01
777,68	238,82
777,87	218,34
778,05	201,95
778,24	242,91
778,43	310,49
778,62	218,34
778,80	238,82
778,99	281,82
779,18	255,20
779,36	240,86
779,55	226,53
779,74	238,82
779,93	273,63
780,11	212,19
780,30	199,90
780,49	294,11
780,68	253,15
780,86	326,88
781,05	316,64
781,24	290,02
781,42	359,65
781,61	175,33
781,80	148,71
781,98	314,59
782,17	212,19
782,36	206,05
782,55	171,23
782,73	165,09
782,92	337,12
783,11	169,18
783,29	232,67
783,48	230,62
783,67	236,77
783,85	210,14
784,04	281,82
784,23	171,23
784,42	247,01
784,60	267,49
784,79	378,08
784,98	247,01
785,16	343,26
785,35	244,96
785,54	197,86
785,72	355,55
785,91	275,68
786,10	173,28
786,28	263,39
786,47	242,91
786,66	240,86
786,84	300,25
787,03	281,82
787,22	199,90
787,40	204,00
787,59	353,50
787,78	281,82
787,96	156,90
788,15	234,72
788,34	224,48
788,52	244,96
788,71	220,38
788,89	290,02
789,08	167,14
789,27	318,69
789,45	238,82
789,64	85,22
789,83	191,71
790,01	232,67
790,20	197,86
790,39	173,28
790,57	154,85
790,76	140,51
790,95	197,86
791,13	191,71
791,32	134,37
791,50	283,87
791,69	197,86
791,88	193,76
792,06	292,06
792,25	191,71
792,43	150,75
792,62	265,44
792,81	230,62
792,99	167,14
793,18	290,02
793,37	183,52
793,55	249,06
793,74	271,58
793,92	193,76
794,11	224,48
794,30	74,98
794,48	169,18
794,67	187,62
794,85	148,71
795,04	144,61
795,23	277,73
795,41	122,08
795,60	249,06
795,78	228,58
795,97	251,10
796,15	306,40
796,34	195,81
796,53	163,04
796,71	290,02
796,90	197,86
797,08	19,68
797,27	259,30
797,46	212,19
797,64	152,80
797,83	232,67
798,01	132,32
798,20	296,16
798,38	242,91
798,57	150,75
798,76	179,42
798,94	93,41
799,13	179,42
799,31	285,92
799,50	136,42
799,68	199,90
799,87	54,50
800,05	259,30
800,24	236,77
800,43	220,38
800,61	371,93
800,80	226,53
800,98	126,18
801,17	109,79
801,35	206,05
801,54	208,10
801,72	191,71
801,91	208,10
802,09	265,44
802,28	146,66
802,46	163,04
802,65	142,56
802,84	251,10
803,02	261,34
803,21	269,54
803,39	115,94
803,58	306,40
803,76	240,86
803,95	220,38
804,13	144,61
804,32	152,80
804,50	218,34
804,69	199,90
804,87	111,84
805,06	199,90
805,24	242,91
805,43	234,72
805,61	195,81
805,80	249,06
805,98	267,49
806,17	208,10
806,35	120,03
806,54	165,09
806,72	218,34
806,91	242,91
807,09	191,71
807,28	144,61
807,46	191,71
807,65	216,29
807,83	105,70
808,02	183,52
808,20	195,81
808,39	201,95
808,57	232,67
808,76	232,67
808,94	298,21
809,13	163,04
809,31	113,89
809,49	310,49
809,68	109,79
809,86	230,62
810,05	122,08
810,23	255,20
810,42	195,81
810,60	148,71
810,79	97,51
810,97	132,32
811,16	189,66
811,34	281,82
811,53	146,66
811,71	122,08
811,89	169,18
812,08	199,90
812,26	136,42
812,45	177,38
812,63	132,32
812,82	171,23
813,00	140,51
813,19	175,33
813,37	185,57
813,55	181,47
813,74	81,12
813,92	251,10
814,11	83,17
814,29	15,59
814,48	249,06
814,66	228,58
814,84	216,29
815,03	191,71
815,21	251,10
815,40	189,66
815,58	199,90
815,77	247,01
815,95	173,28
816,13	210,14
816,32	238,82
816,50	247,01
816,69	171,23
816,87	101,60
817,05	201,95
817,24	210,14
817,42	138,47
817,61	132,32
817,79	249,06
817,97	204,00
818,16	95,46
818,34	255,20
818,53	130,27
818,71	253,15
818,89	109,79
819,08	152,80
819,26	144,61
819,45	212,19
819,63	183,52
819,81	267,49
820,00	234,72
820,18	101,60
820,36	224,48
820,55	156,90
820,73	72,93
820,92	163,04
821,10	181,47
821,28	144,61
821,47	195,81
821,65	230,62
821,83	371,93
822,02	191,71
822,20	128,23
822,39	136,42
822,57	120,03
822,75	93,41
822,94	150,75
823,12	154,85
823,30	113,89
823,49	240,86
823,67	150,75
823,85	185,57
824,04	115,94
824,22	136,42
824,40	236,77
824,59	269,54
824,77	244,96
824,95	154,85
825,14	152,80
825,32	232,67
825,50	179,42
825,69	91,36
825,87	238,82
826,05	206,05
826,24	210,14
826,42	251,10
826,60	220,38
826,79	210,14
826,97	167,14
827,15	97,51
827,34	167,14
827,52	93,41
827,70	113,89
827,89	70,88
828,07	183,52
828,25	208,10
828,44	197,86
828,62	130,27
828,80	244,96
828,98	187,62
829,17	79,07
829,35	226,53
829,53	113,89
829,72	132,32
829,90	64,74
830,08	181,47
830,27	238,82
830,45	285,92
830,63	179,42
830,81	132,32
831,00	183,52
831,18	101,60
831,36	232,67
831,55	140,51
831,73	103,65
831,91	79,07
832,09	290,02
832,28	294,11
832,46	111,84
832,64	156,90
832,82	62,69
833,01	193,76
833,19	247,01
833,37	124,13
833,55	111,84
833,74	199,90
833,92	115,94
834,10	126,18
834,29	204,00
834,47	128,23
834,65	183,52
834,83	70,88
835,02	160,99
835,20	187,62
835,38	138,47
835,56	244,96
835,75	179,42
835,93	185,57
836,11	204,00
836,29	29,92
836,47	228,58
836,66	44,26
836,84	275,68
837,02	136,42
837,20	199,90
837,39	181,47
837,57	206,05
837,75	150,75
837,93	154,85
838,12	54,50
838,30	64,74
838,48	191,71
838,66	183,52
838,84	113,89
839,03	261,34
839,21	93,41
839,39	103,65
839,57	238,82
839,75	218,34
839,94	95,46
840,12	169,18
840,30	115,94
840,48	171,23
840,66	163,04
840,85	89,31
841,03	109,79
841,21	187,62
841,39	269,54
841,57	195,81
841,76	177,38
841,94	320,73
842,12	158,95
842,30	93,41
842,48	212,19
842,67	218,34
842,85	183,52
843,03	165,09
843,21	195,81
843,39	199,90
843,57	89,31
843,76	138,47
843,94	52,45
844,12	142,56
844,30	70,88
844,48	183,52
844,66	179,42
844,85	105,70
845,03	204,00
845,21	117,99
845,39	136,42
845,57	142,56
845,75	93,41
845,94	199,90
846,12	144,61
846,30	163,04
846,48	185,57
846,66	152,80
846,84	27,88
847,02	138,47
847,21	156,90
847,39	197,86
847,57	146,66
847,75	101,60
847,93	13,54
848,11	136,42
848,29	154,85
848,48	146,66
848,66	122,08
848,84	253,15
849,02	148,71
849,20	101,60
849,38	130,27
849,56	103,65
849,74	195,81
849,93	273,63
850,11	111,84
850,29	70,88
850,47	101,60
850,65	85,22
850,83	66,79
851,01	68,83
851,19	228,58
851,37	68,83
851,56	101,60
851,74	130,27
851,92	195,81
852,10	150,75
852,28	138,47
852,46	81,12
852,64	181,47
852,82	177,38
853,00	136,42
853,18	97,51
853,37	142,56
853,55	160,99
853,73	132,32
853,91	83,17
854,09	167,14
854,27	167,14
854,45	130,27
854,63	152,80
854,81	99,55
854,99	165,09
855,17	-31,52
855,35	204,00
855,53	160,99
855,72	77,03
855,90	124,13
856,08	191,71
856,26	99,55
856,44	199,90
856,62	29,92
856,80	154,85
856,98	54,50
857,16	193,76
857,34	163,04
857,52	177,38
857,70	195,81
857,88	120,03
858,06	103,65
858,24	154,85
858,42	228,58
858,60	124,13
858,78	128,23
858,96	109,79
859,15	107,75
859,33	134,37
859,51	107,75
859,69	158,95
859,87	87,27
860,05	95,46
860,23	150,75
860,41	150,75
860,59	128,23
860,77	222,43
860,95	154,85
861,13	169,18
861,31	144,61
861,49	54,50
861,67	189,66
861,85	177,38
862,03	206,05
862,21	83,17
862,39	144,61
862,57	150,75
862,75	136,42
862,93	138,47
863,11	259,30
863,29	11,49
863,47	146,66
863,65	179,42
863,83	115,94
864,01	81,12
864,19	52,45
864,37	70,88
864,55	81,12
864,73	167,14
864,91	146,66
865,09	175,33
865,27	95,46
865,45	44,26
865,63	150,75
865,81	173,28
865,99	167,14
866,17	120,03
866,35	97,51
866,53	242,91
866,71	99,55
866,89	163,04
867,07	124,13
867,24	160,99
867,42	81,12
867,60	195,81
867,78	187,62
867,96	46,31
868,14	165,09
868,32	259,30
868,50	142,56
868,68	148,71
868,86	81,12
869,04	111,84
869,22	126,18
869,40	29,92
869,58	144,61
869,76	115,94
869,94	9,44
870,12	101,60
870,30	111,84
870,48	148,71
870,66	130,27
870,83	52,45
871,01	99,55
871,19	87,27
871,37	101,60
871,55	34,02
871,73	70,88
871,91	187,62
872,09	195,81
872,27	146,66
872,45	42,21
872,63	72,93
872,81	50,40
872,98	130,27
873,16	224,48
873,34	187,62
873,52	83,17
873,70	140,51
873,88	142,56
874,06	-0,80
874,24	105,70
874,42	-8,99
874,60	70,88
874,78	40,16
874,95	126,18
875,13	120,03
875,31	160,99
875,49	197,86
875,67	115,94
875,85	52,45
876,03	64,74
876,21	177,38
876,39	74,98
876,56	113,89
876,74	-37,66
876,92	101,60
877,10	187,62
877,28	54,50
877,46	103,65
877,64	95,46
877,82	158,95
877,99	107,75
878,17	138,47
878,35	91,36
878,53	216,29
878,71	234,72
878,89	126,18
879,07	173,28
879,24	146,66
879,42	210,14
879,60	58,59
879,78	181,47
879,96	56,55
880,14	281,82
880,32	138,47
880,49	181,47
880,67	212,19
880,85	169,18
881,03	99,55
881,21	160,99
881,39	113,89
881,56	140,51
881,74	140,51
881,92	158,95
882,10	117,99
882,28	89,31
882,46	146,66
882,63	101,60
882,81	31,97
882,99	54,50
883,17	177,38
883,35	197,86
883,52	167,14
883,70	111,84
883,88	74,98
884,06	132,32
884,24	134,37
884,42	175,33
884,59	195,81
884,77	177,38
884,95	109,79
885,13	109,79
885,31	109,79
885,48	165,09
885,66	267,49
885,84	234,72
886,02	154,85
886,20	173,28
886,37	173,28
886,55	265,44
886,73	152,80
886,91	120,03
887,08	128,23
887,26	152,80
887,44	113,89
887,62	46,31
887,80	165,09
887,97	158,95
888,15	146,66
888,33	89,31
888,51	169,18
888,68	136,42
888,86	126,18
889,04	56,55
889,22	177,38
889,40	130,27
889,57	79,07
889,75	208,10
889,93	77,03
890,11	103,65
890,28	101,60
890,46	68,83
890,64	165,09
890,82	191,71
890,99	163,04
891,17	87,27
891,35	134,37
891,53	126,18
891,70	-17,18
891,88	120,03
892,06	68,83
892,24	187,62
892,41	77,03
892,59	52,45
892,77	34,02
892,94	36,07
893,12	107,75
893,30	74,98
893,48	115,94
893,65	175,33
893,83	93,41
894,01	171,23
894,19	185,57
894,36	167,14
894,54	74,98
894,72	142,56
894,89	99,55
895,07	113,89
895,25	68,83
895,43	42,21
895,60	124,13
895,78	171,23
895,96	132,32
896,13	199,90
896,31	261,34
896,49	183,52
896,66	46,31
896,84	201,95
897,02	93,41
897,20	183,52
897,37	74,98
897,55	152,80
897,73	179,42
897,90	134,37
898,08	152,80
898,26	183,52
898,43	130,27
898,61	97,51
898,79	163,04
898,96	126,18
899,14	130,27
899,32	156,90
899,49	-15,13
899,67	89,31
899,85	234,72
900,02	177,38
900,20	93,41
900,38	115,94
900,55	179,42
900,73	242,91
900,91	44,26
901,08	181,47
901,26	107,75
901,44	189,66
901,61	107,75
901,79	132,32
901,97	167,14
902,14	91,36
902,32	136,42
902,50	93,41
902,67	120,03
902,85	216,29
903,02	85,22
903,20	50,40
903,38	97,51
903,55	85,22
903,73	66,79
903,91	136,42
904,08	187,62
904,26	31,97
904,44	234,72
904,61	-35,61
904,79	148,71
904,96	56,55
905,14	148,71
905,32	142,56
905,49	140,51
905,67	25,83
905,84	97,51
906,02	117,99
906,20	109,79
906,37	335,07
906,55	115,94
906,73	89,31
906,90	134,37
907,08	103,65
907,25	101,60
907,43	228,58
907,61	48,35
907,78	74,98
907,96	36,07
908,13	173,28
908,31	255,20
908,48	36,07
908,66	44,26
908,84	163,04
909,01	201,95
909,19	226,53
909,36	60,64
909,54	142,56
909,72	144,61
909,89	-31,52
910,07	15,59
910,24	158,95
910,42	185,57
910,59	113,89
910,77	169,18
910,95	44,26
911,12	81,12
911,30	64,74
911,47	134,37
911,65	160,99
911,82	85,22
912,00	171,23
912,17	115,94
912,35	150,75
912,53	193,76
912,70	238,82
912,88	103,65
913,05	214,24
913,23	48,35
913,40	132,32
913,58	54,50
913,75	79,07
913,93	40,16
914,10	85,22
914,28	87,27
914,46	113,89
914,63	99,55
914,81	77,03
914,98	115,94
915,16	46,31
915,33	81,12
915,51	132,32
915,68	206,05
915,86	208,10
916,03	58,59
916,21	-17,18
916,38	136,42
916,56	29,92
916,73	130,27
916,91	107,75
917,08	91,36
917,26	208,10
917,43	117,99
917,61	50,40
917,78	132,32
917,96	29,92
918,13	58,59
918,31	25,83
918,48	3,30
918,66	13,54
918,83	206,05
919,01	181,47
919,18	81,12
919,36	-0,80
919,53	187,62
919,71	253,15
919,88	216,29
920,06	120,03
920,23	87,27
920,41	105,70
920,58	87,27
920,76	62,69
920,93	115,94
921,11	27,88
921,28	124,13
921,45	140,51
921,63	62,69
921,80	54,50
921,98	36,07
922,15	87,27
922,33	68,83
922,50	163,04
922,68	89,31
922,85	134,37
923,03	60,64
923,20	216,29
923,38	87,27
923,55	165,09
923,72	40,16
923,90	275,68
924,07	77,03
924,25	152,80
924,42	148,71
924,60	144,61
924,77	40,16
924,95	171,23
925,12	97,51
925,29	177,38
925,47	87,27
925,64	3,30
925,82	9,44
925,99	85,22
926,17	113,89
926,34	103,65
926,51	74,98
926,69	68,83
926,86	171,23
927,04	105,70
927,21	72,93
927,38	5,35
927,56	74,98
927,73	46,31
927,91	122,08
928,08	273,63
928,25	120,03
928,43	126,18
928,60	42,21
928,78	128,23
928,95	38,11
929,12	167,14
929,30	132,32
929,47	115,94
929,65	34,02
929,82	23,78
929,99	158,95
930,17	89,31
930,34	179,42
930,52	113,89
930,69	109,79
930,86	52,45
931,04	74,98
931,21	19,68
931,38	36,07
931,56	167,14
931,73	181,47
931,91	109,79
932,08	95,46
932,25	160,99
932,43	50,40
932,60	7,40
932,77	150,75
932,95	68,83
933,12	103,65
933,29	19,68
933,47	167,14
933,64	99,55
933,82	193,76
933,99	193,76
934,16	91,36
934,34	101,60
934,51	122,08
934,68	70,88
934,86	126,18
935,03	38,11
935,20	46,31
935,38	5,35
935,55	40,16
935,72	89,31
935,90	142,56
936,07	50,40
936,24	132,32
936,42	156,90
936,59	120,03
936,76	146,66
936,94	36,07
937,11	128,23
937,28	126,18
937,46	130,27
937,63	117,99
937,80	160,99
937,97	158,95
938,15	89,31
938,32	46,31
938,49	191,71
938,67	81,12
938,84	230,62
939,01	111,84
939,19	122,08
939,36	167,14
939,53	167,14
939,70	60,64
939,88	101,60
940,05	91,36
940,22	120,03
940,40	169,18
940,57	218,34
940,74	91,36
940,92	105,70
941,09	154,85
941,26	-15,13
941,43	189,66
941,61	58,59
941,78	27,88
941,95	154,85
942,12	115,94
942,30	70,88
942,47	183,52
942,64	89,31
942,82	134,37
942,99	126,18
943,16	68,83
943,33	5,35
943,51	79,07
943,68	130,27
943,85	81,12
944,02	62,69
944,20	189,66
944,37	48,35
944,54	124,13
944,71	132,32
944,89	97,51
945,06	21,73
945,23	13,54
945,40	144,61
945,58	117,99
945,75	156,90
945,92	210,14
946,09	103,65
946,27	62,69
946,44	31,97
946,61	175,33
946,78	128,23
946,95	56,55
947,13	60,64
947,30	107,75
947,47	97,51
947,64	5,35
947,82	150,75
947,99	1,25
948,16	165,09
948,33	97,51
948,50	27,88
948,68	195,81
948,85	91,36
949,02	150,75
949,19	31,97
949,36	181,47
949,54	60,64
949,71	212,19
949,88	124,13
950,05	107,75
950,22	107,75
950,40	142,56
950,57	72,93
950,74	234,72
950,91	136,42
951,08	81,12
951,26	50,40
951,43	68,83
951,60	38,11
951,77	105,70
951,94	234,72
952,11	134,37
952,29	163,04
952,46	-17,18
952,63	169,18
952,80	91,36
952,97	128,23
953,15	95,46
953,32	120,03
953,49	21,73
953,66	107,75
953,83	52,45
954,00	103,65
954,17	122,08
954,35	230,62
954,52	128,23
954,69	99,55
954,86	247,01
955,03	60,64
955,20	124,13
955,38	48,35
955,55	105,70
955,72	150,75
955,89	38,11
956,06	56,55
956,23	66,79
956,40	38,11
956,58	21,73
956,75	-2,84
956,92	115,94
957,09	66,79
957,26	126,18
957,43	56,55
957,60	160,99
957,77	97,51
957,95	107,75
958,12	81,12
958,29	148,71
958,46	140,51
958,63	46,31
958,80	83,17
958,97	130,27
959,14	77,03
959,31	93,41
959,49	74,98
959,66	140,51
959,83	1,25
960,00	79,07
960,17	113,89
960,34	113,89
960,51	85,22
960,68	158,95
960,85	70,88
961,02	93,41
961,20	91,36
961,37	89,31
961,54	99,55
961,71	62,69
961,88	113,89
962,05	91,36
962,22	113,89
962,39	152,80
962,56	77,03
962,73	97,51
962,90	46,31
963,07	97,51
963,24	107,75
963,42	77,03
963,59	156,90
963,76	89,31
963,93	242,91
964,10	52,45
964,27	138,47
964,44	150,75
964,61	204,00
964,78	87,27
964,95	126,18
965,12	95,46
965,29	163,04
965,46	34,02
965,63	179,42
965,80	109,79
965,97	-31,52
966,14	66,79
966,31	13,54
966,48	193,76
966,66	138,47
966,83	152,80
967,00	185,57
967,17	142,56
967,34	122,08
967,51	228,58
967,68	126,18
967,85	38,11
968,02	230,62
968,19	23,78
968,36	167,14
968,53	70,88
968,70	79,07
968,87	175,33
969,04	179,42
969,21	77,03
969,38	279,78
969,55	42,21
969,72	158,95
969,89	134,37
970,06	50,40
970,23	54,50
970,40	115,94
970,57	87,27
970,74	93,41
970,91	117,99
971,08	91,36
971,25	60,64
971,42	156,90
971,59	44,26
971,76	54,50
971,93	97,51
972,10	113,89
972,27	9,44
972,44	54,50
972,61	15,59
972,78	79,07
972,95	95,46
973,12	204,00
973,29	60,64
973,46	40,16
973,63	79,07
973,80	175,33
973,97	5,35
974,14	163,04
974,30	58,59
974,47	101,60
974,64	122,08
974,81	70,88
974,98	240,86
975,15	103,65
975,32	42,21
975,49	105,70
975,66	58,59
975,83	183,52
976,00	93,41
976,17	62,69
976,34	68,83
976,51	48,35
976,68	5,35
976,85	142,56
977,02	99,55
977,19	101,60
977,36	36,07
977,52	193,76
977,69	97,51
977,86	163,04
978,03	48,35
978,20	120,03
978,37	44,26
978,54	120,03
978,71	107,75
978,88	224,48
979,05	29,92
979,22	105,70
979,39	136,42
979,56	122,08
979,72	34,02
979,89	128,23
980,06	158,95
980,23	191,71
980,40	29,92
980,57	56,55
980,74	122,08
980,91	48,35
981,08	89,31
981,25	50,40
981,41	9,44
981,58	5,35
981,75	31,97
981,92	77,03
982,09	154,85
982,26	-19,23
982,43	-33,56
982,60	146,66
982,77	109,79
982,93	185,57
983,10	105,70
983,27	52,45
983,44	27,88
983,61	148,71
983,78	64,74
983,95	70,88
984,11	44,26
984,28	120,03
984,45	52,45
984,62	40,16
984,79	111,84
984,96	89,31
985,13	36,07
985,30	117,99
985,46	25,83
985,63	169,18
985,80	185,57
985,97	72,93
986,14	87,27
986,31	128,23
986,47	58,59
986,64	21,73
986,81	120,03
986,98	81,12
987,15	66,79
987,32	68,83
987,48	85,22
987,65	109,79
987,82	97,51
987,99	185,57
988,16	623,83
988,33	206,05
988,49	87,27
988,66	103,65
988,83	79,07
989,00	160,99
989,17	21,73
989,34	60,64
989,50	85,22
989,67	54,50
989,84	-47,90
990,01	52,45
990,18	120,03
990,34	167,14
990,51	72,93
990,68	99,55
990,85	179,42
991,02	169,18
991,18	87,27
991,35	29,92
991,52	169,18
991,69	7,40
991,86	93,41
992,02	17,64
992,19	42,21
992,36	85,22
992,53	64,74
992,69	52,45
992,86	109,79
993,03	191,71
993,20	-2,84
993,37	95,46
993,53	122,08
993,70	36,07
993,87	-27,42
994,04	68,83
994,20	21,73
994,37	132,32
994,54	-8,99
994,71	40,16
994,87	103,65
995,04	111,84
995,21	126,18
995,38	27,88
995,55	25,83
995,71	95,46
995,88	122,08
996,05	60,64
996,22	54,50
996,38	111,84
996,55	19,68
996,72	-2,84
996,88	232,67
997,05	1225,94
997,22	122,08
997,39	74,98
997,55	50,40
997,72	87,27
997,89	62,69
998,06	48,35
998,22	91,36
998,39	-2,84
998,56	54,50
998,73	7,40
998,89	23,78
999,06	-6,94
999,23	31,97
999,39	64,74
999,56	101,60
999,73	113,89
999,90	-15,13
1000,06	109,79
1000,23	48,35
1000,40	160,99
1000,56	132,32
1000,73	40,16
1000,90	109,79
1001,06	52,45
1001,23	48,35
1001,40	117,99
1001,57	126,18
1001,73	60,64
1001,90	3,30
1002,07	50,40
1002,23	93,41
1002,40	68,83
1002,57	115,94
1002,73	83,17
1002,90	34,02
1003,07	169,18
1003,23	-52,00
1003,40	54,50
1003,57	21,73
1003,73	38,11
1003,90	187,62
1004,07	31,97
1004,23	128,23
1004,40	111,84
1004,57	103,65
1004,73	1,25
1004,90	70,88
1005,07	62,69
1005,23	163,04
1005,40	58,59
1005,57	85,22
1005,73	181,47
1005,90	-58,14
1006,07	40,16
1006,23	117,99
1006,40	34,02
1006,57	-0,80
1006,73	60,64
1006,90	29,92
1007,06	-13,08
1007,23	-60,19
1007,40	-29,47
1007,56	97,51
1007,73	87,27
1007,90	52,45
1008,06	62,69
1008,23	95,46
1008,40	93,41
1008,56	29,92
1008,73	120,03
1008,89	93,41
1009,06	91,36
1009,23	15,59
1009,39	87,27
1009,56	52,45
1009,72	97,51
1009,89	103,65
1010,06	62,69
1010,22	42,21
1010,39	7,40
1010,55	68,83
1010,72	68,83
1010,89	7,40
1011,05	120,03
1011,22	83,17
1011,38	1,25
1011,55	44,26
1011,72	70,88
1011,88	56,55
1012,05	185,57
1012,21	107,75
1012,38	81,12
1012,55	163,04
1012,71	7,40
1012,88	136,42
1013,04	56,55
1013,21	-13,08
1013,37	107,75
1013,54	115,94
1013,71	27,88
1013,87	87,27
1014,04	122,08
1014,20	117,99
1014,37	34,02
1014,53	87,27
1014,70	42,21
1014,87	72,93
1015,03	158,95
1015,20	83,17
1015,36	105,70
1015,53	58,59
1015,69	56,55
1015,86	21,73
1016,02	29,92
1016,19	146,66
1016,36	38,11
1016,52	34,02
1016,69	81,12
1016,85	128,23
1017,02	120,03
1017,18	42,21
1017,35	132,32
1017,51	11,49
1017,68	15,59
1017,84	11,49
1018,01	13,54
1018,17	150,75
1018,34	191,71
1018,50	70,88
1018,67	72,93
1018,84	134,37
1019,00	27,88
1019,17	101,60
1019,33	99,55
1019,50	130,27
1019,66	113,89
1019,83	-4,89
1019,99	140,51
1020,16	15,59
1020,32	56,55
1020,49	163,04
1020,65	122,08
1020,82	77,03
1020,98	187,62
1021,15	31,97
1021,31	177,38
1021,48	81,12
1021,64	136,42
1021,81	107,75
1021,97	150,75
1022,14	97,51
1022,30	126,18
1022,47	124,13
1022,63	97,51
1022,79	150,75
1022,96	74,98
1023,12	40,16
1023,29	77,03
1023,45	187,62
1023,62	146,66
1023,78	204,00
1023,95	34,02
1024,11	70,88
1024,28	60,64
1024,44	77,03
1024,61	9,44
1024,77	7,40
1024,94	148,71
1025,10	21,73
1025,26	72,93
1025,43	89,31
1025,59	70,88
1025,76	40,16
1025,92	111,84
1026,09	-41,76
1026,25	193,76
1026,42	111,84
1026,58	66,79
1026,74	23,78
1026,91	128,23
1027,07	81,12
1027,24	158,95
1027,40	19,68
1027,57	154,85
1027,73	44,26
1027,90	167,14
1028,06	146,66
1028,22	79,07
1028,39	56,55
1028,55	138,47
1028,72	107,75
1028,88	232,67
1029,04	19,68
1029,21	134,37
1029,37	46,31
1029,54	85,22
1029,70	79,07
1029,87	5,35
1030,03	-11,04
1030,19	189,66
1030,36	21,73
1030,52	132,32
1030,69	38,11
1030,85	-2,84
1031,01	85,22
1031,18	105,70
1031,34	130,27
1031,50	48,35
1031,67	124,13
1031,83	122,08
1032,00	48,35
1032,16	62,69
1032,32	29,92
1032,49	183,52
1032,65	124,13
1032,82	156,90
1032,98	93,41
1033,14	21,73
1033,31	128,23
1033,47	222,43
1033,63	95,46
1033,80	120,03
1033,96	31,97
1034,13	132,32
1034,29	165,09
1034,45	101,60
1034,62	115,94
1034,78	105,70
1034,94	-35,61
1035,11	109,79
1035,27	31,97
1035,43	52,45
1035,60	87,27
1035,76	19,68
1035,92	38,11
1036,09	38,11
1036,25	142,56
1036,41	44,26
1036,58	128,23
1036,74	130,27
1036,90	1,25
1037,07	31,97
1037,23	66,79
1037,39	177,38
1037,56	91,36
1037,72	160,99
1037,88	70,88
1038,05	3,30
1038,21	124,13
1038,37	103,65
1038,54	52,45
1038,70	109,79
1038,86	171,23
1039,03	72,93
1039,19	77,03
1039,35	56,55
1039,52	5,35
1039,68	40,16
1039,84	50,40
1040,00	126,18
1040,17	15,59
1040,33	58,59
1040,49	38,11
1040,66	107,75
1040,82	-21,28
1040,98	27,88
1041,15	107,75
1041,31	93,41
1041,47	117,99
1041,63	36,07
1041,80	58,59
1041,96	158,95
1042,12	56,55
1042,29	152,80
1042,45	163,04
1042,61	9,44
1042,77	89,31
1042,94	167,14
1043,10	273,63
1043,26	126,18
1043,42	50,40
1043,59	124,13
1043,75	72,93
1043,91	38,11
1044,07	56,55
1044,24	60,64
1044,40	101,60
>>>>>End Processed Spectral Data<<<<<
