SpectraSuite Data File
++++++++++++++++++++++++++++++++++++
Date: Mon Nov 09 11:49:52 BRST 2020
User: Administrador
Dark Spectrum Present: No
Reference Spectrum Present: No
Number of Sampled Component Spectra: 1
Spectrometers: USB4F02573
Integration Time (usec): 100000 (USB4F02573)
Spectra Averaged: 1 (USB4F02573)
Boxcar Smoothing: 0 (USB4F02573)
Correct for Electrical Dark: Yes (USB4F02573)
Strobe/Lamp Enabled: No (USB4F02573)
Correct for Detector Non-linearity: No (USB4F02573)
Correct for Stray Light: No (USB4F02573)
Number of Pixels in Processed Spectrum: 3648
>>>>>Begin Processed Spectral Data<<<<<
345,22	-115,62
345,44	-115,62
345,66	-115,62
345,88	-156,58
346,10	-111,52
346,32	101,47
346,54	103,51
346,75	80,99
346,97	95,32
347,19	132,19
347,41	27,74
347,63	70,75
347,85	-54,18
348,07	40,03
348,29	101,47
348,51	87,13
348,73	80,99
348,95	11,35
349,16	99,42
349,38	52,31
349,60	119,90
349,82	123,99
350,04	64,60
350,26	205,91
350,48	154,71
350,70	113,75
350,92	78,94
351,14	175,19
351,35	164,95
351,57	113,75
351,79	175,19
352,01	19,55
352,23	99,42
352,45	117,85
352,67	126,04
352,89	111,71
353,10	132,19
353,32	101,47
353,54	187,48
353,76	181,34
353,98	113,75
354,20	105,56
354,42	132,19
354,64	115,80
354,85	228,44
355,07	144,47
355,29	121,95
355,51	134,23
355,73	119,90
355,95	58,46
356,17	54,36
356,38	117,85
356,60	62,55
356,82	128,09
357,04	56,41
357,26	115,80
357,48	99,42
357,69	177,24
357,91	140,38
358,13	148,57
358,35	177,24
358,57	207,96
358,79	138,33
359,01	167,00
359,22	126,04
359,44	181,34
359,66	226,39
359,88	-31,65
360,10	72,79
360,32	52,31
360,53	103,51
360,75	150,62
360,97	107,61
361,19	128,09
361,41	160,86
361,62	158,81
361,84	107,61
362,06	160,86
362,28	66,65
362,50	242,78
362,72	119,90
362,93	64,60
363,15	37,98
363,37	115,80
363,59	177,24
363,81	9,31
364,02	226,39
364,24	99,42
364,46	214,10
364,68	169,05
364,90	207,96
365,11	89,18
365,33	197,72
365,55	123,99
365,77	119,90
365,99	56,41
366,20	191,58
366,42	146,52
366,64	58,46
366,86	146,52
367,07	162,90
367,29	97,37
367,51	111,71
367,73	89,18
367,95	113,75
368,16	201,82
368,38	158,81
368,60	134,23
368,82	173,14
369,03	197,72
369,25	228,44
369,47	70,75
369,69	64,60
369,91	93,27
370,12	33,88
370,34	-17,32
370,56	87,13
370,78	111,71
370,99	150,62
371,21	156,76
371,43	128,09
371,65	62,55
371,86	72,79
372,08	162,90
372,30	101,47
372,52	111,71
372,73	29,79
372,95	144,47
373,17	62,55
373,39	134,23
373,60	160,86
373,82	113,75
374,04	58,46
374,26	66,65
374,47	150,62
374,69	99,42
374,91	189,53
375,12	113,75
375,34	134,23
375,56	128,09
375,78	138,33
375,99	123,99
376,21	130,14
376,43	160,86
376,65	173,14
376,86	177,24
377,08	130,14
377,30	179,29
377,51	107,61
377,73	130,14
377,95	95,32
378,17	183,38
378,38	91,23
378,60	185,43
378,82	224,34
379,03	255,06
379,25	99,42
379,47	250,97
379,68	97,37
379,90	78,94
380,12	134,23
380,34	119,90
380,55	191,58
380,77	175,19
380,99	46,17
381,20	253,02
381,42	146,52
381,64	132,19
381,85	134,23
382,07	234,58
382,29	105,56
382,50	164,95
382,72	121,95
382,94	58,46
383,15	171,10
383,37	152,66
383,59	99,42
383,80	35,93
384,02	156,76
384,24	109,66
384,45	107,61
384,67	119,90
384,89	15,45
385,10	136,28
385,32	185,43
385,54	230,49
385,75	107,61
385,97	218,20
386,19	236,63
386,40	191,58
386,62	99,42
386,84	214,10
387,05	83,03
387,27	72,79
387,49	115,80
387,70	115,80
387,92	146,52
388,14	87,13
388,35	83,03
388,57	115,80
388,79	103,51
389,00	93,27
389,22	87,13
389,43	99,42
389,65	160,86
389,87	121,95
390,08	107,61
390,30	154,71
390,52	154,71
390,73	132,19
390,95	46,17
391,17	70,75
391,38	152,66
391,60	191,58
391,81	210,01
392,03	117,85
392,25	60,51
392,46	29,79
392,68	195,67
392,89	72,79
393,11	148,57
393,33	171,10
393,54	160,86
393,76	83,03
393,98	171,10
394,19	136,28
394,41	191,58
394,62	-35,75
394,84	128,09
395,06	85,08
395,27	40,03
395,49	107,61
395,70	162,90
395,92	44,12
396,13	158,81
396,35	117,85
396,57	126,04
396,78	105,56
397,00	103,51
397,21	142,42
397,43	91,23
397,65	113,75
397,86	271,45
398,08	146,52
398,29	193,62
398,51	33,88
398,72	212,06
398,94	269,40
399,16	173,14
399,37	173,14
399,59	148,57
399,80	91,23
400,02	111,71
400,23	121,95
400,45	91,23
400,67	259,16
400,88	113,75
401,10	134,23
401,31	80,99
401,53	107,61
401,74	164,95
401,96	91,23
402,17	162,90
402,39	85,08
402,61	148,57
402,82	123,99
403,04	244,82
403,25	113,75
403,47	189,53
403,68	115,80
403,90	291,93
404,11	119,90
404,33	62,55
404,54	199,77
404,76	140,38
404,97	23,64
405,19	246,87
405,41	162,90
405,62	195,67
405,84	105,56
406,05	222,30
406,27	111,71
406,48	207,96
406,70	117,85
406,91	72,79
407,13	97,37
407,34	115,80
407,56	277,59
407,77	119,90
407,99	101,47
408,20	232,54
408,42	40,03
408,63	197,72
408,85	97,37
409,06	179,29
409,28	300,12
409,49	76,89
409,71	148,57
409,92	136,28
410,14	150,62
410,35	367,70
410,57	224,34
410,78	62,55
411,00	189,53
411,21	154,71
411,43	197,72
411,64	132,19
411,86	74,84
412,07	244,82
412,29	42,07
412,50	169,05
412,72	246,87
412,93	250,97
413,15	101,47
413,36	85,08
413,58	238,68
413,79	185,43
414,01	85,08
414,22	187,48
414,43	238,68
414,65	162,90
414,86	138,33
415,08	89,18
415,29	195,67
415,51	201,82
415,72	156,76
415,94	167,00
416,15	181,34
416,37	175,19
416,58	83,03
416,80	121,95
417,01	115,80
417,22	201,82
417,44	158,81
417,65	134,23
417,87	158,81
418,08	255,06
418,30	136,28
418,51	179,29
418,73	177,24
418,94	115,80
419,15	158,81
419,37	171,10
419,58	121,95
419,80	164,95
420,01	207,96
420,23	142,42
420,44	177,24
420,65	154,71
420,87	203,86
421,08	187,48
421,30	154,71
421,51	117,85
421,73	148,57
421,94	128,09
422,15	181,34
422,37	103,51
422,58	56,41
422,80	66,65
423,01	183,38
423,22	105,56
423,44	87,13
423,65	205,91
423,87	83,03
424,08	156,76
424,29	162,90
424,51	189,53
424,72	199,77
424,94	164,95
425,15	93,27
425,36	224,34
425,58	126,04
425,79	150,62
426,01	240,73
426,22	162,90
426,43	171,10
426,65	93,27
426,86	148,57
427,08	265,30
427,29	130,14
427,50	105,56
427,72	78,94
427,93	121,95
428,14	93,27
428,36	146,52
428,57	105,56
428,79	154,71
429,00	128,09
429,21	142,42
429,43	117,85
429,64	205,91
429,85	222,30
430,07	230,49
430,28	179,29
430,49	80,99
430,71	101,47
430,92	210,01
431,14	123,99
431,35	179,29
431,56	195,67
431,78	201,82
431,99	220,25
432,20	171,10
432,42	105,56
432,63	105,56
432,84	130,14
433,06	179,29
433,27	144,47
433,48	199,77
433,70	113,75
433,91	181,34
434,12	42,07
434,34	207,96
434,55	197,72
434,76	158,81
434,98	171,10
435,19	140,38
435,40	144,47
435,62	99,42
435,83	214,10
436,04	138,33
436,26	218,20
436,47	29,79
436,68	87,13
436,90	107,61
437,11	244,82
437,32	140,38
437,54	162,90
437,75	128,09
437,96	240,73
438,17	238,68
438,39	173,14
438,60	216,15
438,81	134,23
439,03	212,06
439,24	154,71
439,45	250,97
439,67	130,14
439,88	132,19
440,09	148,57
440,30	201,82
440,52	25,69
440,73	48,22
440,94	91,23
441,16	123,99
441,37	113,75
441,58	177,24
441,80	162,90
442,01	25,69
442,22	265,30
442,43	169,05
442,65	285,78
442,86	222,30
443,07	95,32
443,28	115,80
443,50	212,06
443,71	152,66
443,92	146,52
444,14	115,80
444,35	183,38
444,56	167,00
444,77	148,57
444,99	189,53
445,20	107,61
445,41	146,52
445,62	154,71
445,84	140,38
446,05	226,39
446,26	289,88
446,47	242,78
446,69	105,56
446,90	160,86
447,11	212,06
447,32	181,34
447,54	210,01
447,75	101,47
447,96	160,86
448,17	164,95
448,39	220,25
448,60	167,00
448,81	246,87
449,02	246,87
449,23	109,66
449,45	216,15
449,66	285,78
449,87	164,95
450,08	164,95
450,30	121,95
450,51	195,67
450,72	185,43
450,93	171,10
451,15	224,34
451,36	261,21
451,57	212,06
451,78	242,78
451,99	191,58
452,21	167,00
452,42	238,68
452,63	156,76
452,84	117,85
453,05	136,28
453,27	167,00
453,48	308,31
453,69	70,75
453,90	302,17
454,11	181,34
454,33	187,48
454,54	152,66
454,75	154,71
454,96	259,16
455,17	152,66
455,39	228,44
455,60	113,75
455,81	220,25
456,02	154,71
456,23	240,73
456,45	164,95
456,66	316,50
456,87	285,78
457,08	234,58
457,29	293,97
457,50	222,30
457,72	242,78
457,93	154,71
458,14	226,39
458,35	232,54
458,56	336,98
458,77	68,70
458,99	226,39
459,20	189,53
459,41	195,67
459,62	177,24
459,83	271,45
460,04	148,57
460,26	318,55
460,47	216,15
460,68	175,19
460,89	244,82
461,10	273,49
461,31	289,88
461,52	222,30
461,74	361,56
461,95	119,90
462,16	191,58
462,37	199,77
462,58	302,17
462,79	269,40
463,00	203,86
463,22	271,45
463,43	250,97
463,64	285,78
463,85	312,41
464,06	269,40
464,27	253,02
464,48	267,35
464,70	183,38
464,91	269,40
465,12	257,11
465,33	341,08
465,54	384,09
465,75	230,49
465,96	240,73
466,17	234,58
466,38	275,54
466,60	300,12
466,81	205,91
467,02	412,76
467,23	279,64
467,44	267,35
467,65	277,59
467,86	369,75
468,07	248,92
468,28	357,46
468,50	214,10
468,71	384,09
468,92	273,49
469,13	279,64
469,34	257,11
469,55	306,26
469,76	291,93
469,97	355,41
470,18	287,83
470,39	298,07
470,60	320,60
470,82	334,93
471,03	236,63
471,24	326,74
471,45	357,46
471,66	332,89
471,87	291,93
472,08	386,13
472,29	308,31
472,50	291,93
472,71	246,87
472,92	326,74
473,13	265,30
473,34	341,08
473,55	334,93
473,77	392,28
473,98	373,85
474,19	466,00
474,40	308,31
474,61	371,80
474,82	400,47
475,03	339,03
475,24	302,17
475,45	439,38
475,66	433,24
475,87	382,04
476,08	326,74
476,29	509,01
476,50	519,25
476,71	537,68
476,92	435,28
477,13	470,10
477,34	500,82
477,55	365,65
477,76	478,29
477,97	410,71
478,18	451,67
478,40	390,23
478,61	500,82
478,82	488,53
479,03	498,77
479,24	609,36
479,45	552,02
479,66	552,02
479,87	525,40
480,08	398,42
480,29	609,36
480,50	640,08
480,71	545,87
480,92	699,47
481,13	603,22
481,34	584,79
481,55	568,40
481,76	629,84
481,97	711,76
482,18	709,71
482,39	629,84
482,60	742,48
482,81	652,37
483,02	685,14
483,23	830,54
483,44	824,40
483,65	750,67
483,86	853,07
484,07	865,36
484,28	881,74
484,49	848,97
484,70	947,28
484,91	891,98
485,12	922,70
485,33	875,60
485,54	949,32
485,75	984,14
485,96	1016,91
486,17	1053,77
486,38	988,24
486,59	1197,13
486,80	1158,22
487,01	1219,66
487,21	1137,74
487,42	1199,18
487,63	1393,73
487,84	1375,30
488,05	1315,91
488,26	1557,57
488,47	1446,98
488,68	1436,74
488,89	1627,20
489,10	1467,46
489,31	1602,63
489,52	1662,02
489,73	1666,11
489,94	1877,05
490,15	1735,74
490,36	1856,57
490,57	1934,40
490,78	1918,01
490,99	2069,56
491,20	2106,43
491,41	2102,33
491,61	2260,02
491,82	2294,84
492,03	2374,71
492,24	2333,75
492,45	2346,04
492,66	2528,31
492,87	2552,88
493,08	2550,84
493,29	2579,51
493,50	2587,70
493,71	2866,22
493,92	2802,74
494,13	3073,07
494,34	2937,90
494,54	3183,66
494,75	3263,53
494,96	3419,17
495,17	3533,86
495,38	3630,12
495,59	3671,08
495,80	3748,90
496,01	3927,07
496,22	4117,53
496,43	4224,03
496,64	4232,22
496,84	4576,28
497,05	4570,13
497,26	4819,99
497,47	4895,76
497,68	4973,58
497,89	5147,66
498,10	5477,38
498,31	5557,25
498,52	5813,25
498,72	5882,88
498,93	6253,56
499,14	6243,32
499,35	6380,54
499,56	6386,68
499,77	6747,12
499,98	7275,50
500,19	7250,92
500,40	7355,37
500,60	7586,79
500,81	7926,75
501,02	7992,29
501,23	8221,66
501,44	8496,09
501,65	8598,49
501,86	9083,86
502,06	9393,10
502,27	9528,27
502,48	9866,18
502,69	10335,17
502,90	10453,95
503,11	10535,87
503,32	10863,54
503,53	11287,47
503,73	11330,48
503,94	12102,56
504,15	12252,06
504,36	12411,81
504,57	12831,64
504,78	13110,16
504,98	13722,51
505,19	13806,47
505,40	14136,20
505,61	14777,21
505,82	15033,21
506,03	16251,75
506,23	16122,73
506,44	16819,03
506,65	16784,22
506,86	17511,25
507,07	18021,19
507,28	18541,38
507,48	19317,56
507,69	20001,58
507,90	20077,35
508,11	20931,36
508,32	21447,44
508,53	22024,97
508,73	22522,63
508,94	23356,15
509,15	23638,77
509,36	24767,20
509,57	25133,79
509,77	25879,25
509,98	26395,34
510,19	27116,22
510,40	27843,25
510,61	28527,27
510,81	28756,64
511,02	29852,31
511,23	30378,64
511,44	30663,30
511,65	30878,34
511,85	32445,04
512,06	32332,40
512,27	33296,99
512,48	34191,95
512,69	34376,27
512,89	35545,66
513,10	35398,21
513,31	36176,44
513,52	36737,58
513,73	37648,92
513,93	38459,92
514,14	38529,55
514,35	39361,03
514,56	39631,36
514,76	40356,34
514,97	40786,41
515,18	41888,22
515,39	42592,72
515,60	43659,71
515,80	43119,05
516,01	43837,89
516,22	44630,45
516,43	46307,74
516,63	46922,13
516,84	48333,18
517,05	47894,91
517,26	48697,72
517,46	48920,94
517,67	50481,50
517,88	50555,22
518,09	51593,54
518,29	52345,15
518,50	53043,51
518,71	54145,31
518,92	54896,92
519,12	55140,63
519,33	55994,63
519,54	56807,67
519,75	57573,61
519,95	57653,48
520,16	58802,39
520,37	58267,87
520,57	59334,87
520,78	59947,21
520,99	61026,49
521,20	60887,23
521,40	61755,56
521,61	60981,43
521,82	62408,87
522,03	62040,23
522,23	61900,97
522,44	62390,44
522,65	62224,55
522,85	61960,36
523,06	62668,96
523,27	62574,75
523,48	63125,66
523,68	62701,73
523,89	62812,32
524,10	62052,52
524,30	62431,39
524,51	62204,07
524,72	62111,91
524,93	61733,04
525,13	61804,72
525,34	61253,81
525,55	61745,32
525,75	61089,97
525,96	61321,40
526,17	60401,86
526,37	60664,00
526,58	60240,07
526,79	59939,02
526,99	59637,97
527,20	60217,54
527,41	58958,04
527,62	59670,73
527,82	59257,04
528,03	58732,76
528,24	59218,13
528,44	59990,22
528,65	59726,03
528,86	59095,25
529,06	59011,29
529,27	59367,63
529,48	58790,11
529,68	58585,31
529,89	58106,08
530,10	57651,44
530,30	57778,41
530,51	58065,13
530,72	58104,04
530,92	58478,81
531,13	57573,61
531,34	58120,42
531,54	56449,28
531,75	57663,72
531,96	56887,54
532,16	56260,86
532,37	55654,67
532,57	55953,67
532,78	55208,21
532,99	55101,71
533,19	54479,13
533,40	54202,66
533,61	53096,75
533,81	52508,99
534,02	51894,60
534,23	52015,43
534,43	50891,09
534,64	50694,49
534,84	49981,79
535,05	49254,76
535,26	48415,10
535,46	48025,98
535,67	47335,82
535,88	46768,53
536,08	46305,69
536,29	45199,79
536,49	44593,59
536,70	44364,21
536,91	43123,15
537,11	43192,78
537,32	41800,16
537,53	41525,73
537,73	41216,49
537,94	41462,24
538,14	40376,82
538,35	39989,75
538,56	39854,59
538,76	39375,36
538,97	38728,20
539,17	38863,37
539,38	38353,43
539,59	38621,71
539,79	38173,20
540,00	37937,69
540,20	37591,58
540,41	37339,68
540,62	37274,15
540,82	37317,15
541,03	36854,31
541,23	37044,77
541,44	36868,65
541,64	36424,24
541,85	36364,85
542,06	36612,65
542,26	36370,99
542,47	35985,97
542,67	35957,30
542,88	35568,19
543,08	35213,89
543,29	35226,18
543,50	34777,67
543,70	34560,59
543,91	34050,64
544,11	34835,02
544,32	33575,51
544,52	33682,01
544,73	32662,12
544,94	32961,12
545,14	32316,01
545,35	32234,10
545,55	31421,05
545,76	30958,21
545,96	30694,02
546,17	30354,06
546,37	30182,03
546,58	29156,00
546,78	29239,96
546,99	28797,60
547,20	28254,89
547,40	27669,17
547,61	27081,41
547,81	26944,19
548,02	26129,10
548,22	26047,18
548,43	25371,35
548,63	25101,02
548,84	24404,71
549,04	24449,77
549,25	23685,87
549,45	23618,29
549,66	23053,05
549,86	23186,17
550,07	23071,48
550,27	22770,43
550,48	22500,10
550,69	21992,20
550,89	22328,07
551,10	21627,67
551,30	21519,12
551,51	21261,08
551,71	21244,69
551,92	21211,93
552,12	20638,50
552,33	20783,90
552,53	20126,50
552,74	20339,49
552,94	20151,08
553,15	19708,72
553,35	19419,95
553,56	19735,34
553,76	19340,08
553,97	19559,22
554,17	19479,35
554,38	19272,50
554,58	18963,26
554,79	19274,55
554,99	18860,86
555,19	18750,27
555,40	18277,19
555,60	18410,31
555,81	17824,59
556,01	17716,04
556,22	17560,40
556,42	17486,67
556,63	17365,84
556,83	17093,46
557,04	16763,74
557,24	16851,80
557,45	16446,30
557,65	16294,75
557,86	15487,85
558,06	15856,49
558,27	15285,11
558,47	15016,82
558,67	15149,94
558,88	14574,46
559,08	14171,01
559,29	14379,90
559,49	13630,35
559,70	13534,09
559,90	13228,95
560,11	12970,90
560,31	12544,92
560,52	12489,63
560,72	12311,46
560,92	12270,50
561,13	12020,64
561,33	11752,36
561,54	11389,87
561,74	11402,16
561,95	11037,62
562,15	11072,43
562,35	10671,03
562,56	10740,66
562,76	10451,90
562,97	10533,82
563,17	10331,07
563,38	10482,62
563,58	9987,01
563,78	10017,73
563,99	9892,80
564,19	10070,98
564,40	9659,34
564,60	9896,90
564,80	9509,83
565,01	9483,21
565,21	9489,35
565,42	9792,45
565,62	9368,52
565,83	9382,86
566,03	9358,28
566,23	9360,33
566,44	9116,62
566,64	9159,63
566,85	9212,88
567,05	9276,37
567,25	8905,68
567,46	9122,77
567,66	8721,37
567,86	8795,09
568,07	8543,19
568,27	8799,19
568,48	8307,68
568,68	8489,95
568,88	8209,37
569,09	8256,48
569,29	8223,71
569,50	8158,17
569,70	8100,83
569,90	7990,24
570,11	7732,20
570,31	7613,41
570,51	7404,52
570,72	7394,28
570,92	7418,86
571,13	7207,92
571,33	7025,65
571,53	7117,81
571,74	6847,47
571,94	6654,97
572,14	6626,29
572,35	6507,51
572,55	6147,07
572,75	6302,71
572,96	6216,70
573,16	6173,69
573,36	5907,46
573,57	5886,98
573,77	5526,53
573,97	5573,64
574,18	5352,46
574,38	5547,01
574,59	5229,58
574,79	5272,59
574,99	5010,45
575,20	5057,55
575,40	4916,24
575,60	5024,78
575,81	4826,13
576,01	4805,65
576,21	4801,55
576,42	4609,04
576,62	4576,28
576,82	4561,94
577,02	4582,42
577,23	4424,73
577,43	4459,54
577,63	4484,12
577,84	4168,73
578,04	4408,34
578,24	4121,63
578,45	4154,40
578,65	4107,29
578,85	4217,88
579,06	4185,12
579,26	4107,29
579,46	4127,77
579,67	4111,39
579,87	4142,11
580,07	4074,52
580,27	3910,69
580,48	4035,61
580,68	3920,93
580,88	3980,32
581,09	3689,51
581,29	3871,78
581,49	3806,24
581,69	3671,08
581,90	3761,19
582,10	3570,72
582,30	3503,14
582,51	3689,51
582,71	3433,51
582,91	3523,62
583,11	3413,03
583,32	3286,06
583,52	3230,76
583,72	3327,02
583,93	3228,71
584,13	3324,97
584,33	3138,60
584,53	3200,04
584,74	2978,86
584,94	2956,33
585,14	2915,37
585,34	2815,02
585,55	2745,39
585,75	2798,64
585,95	2655,28
586,15	2608,18
586,36	2665,52
586,56	2661,43
586,76	2540,60
586,96	2339,90
587,17	2264,12
587,37	2464,82
587,57	2266,17
587,77	2245,69
587,98	2325,56
588,18	2145,34
588,38	2147,39
588,58	2108,47
588,79	2192,44
588,99	2049,08
589,19	2071,61
589,39	2055,23
589,60	1977,40
589,80	1956,93
590,00	1965,12
590,20	1875,01
590,40	1875,01
590,61	1954,88
590,81	1958,97
591,01	1745,98
591,21	1897,53
591,42	1848,38
591,62	1791,04
591,82	1621,06
592,02	1786,94
592,22	1815,62
592,43	1612,87
592,63	1897,53
592,83	1723,46
593,03	1754,18
593,23	1580,10
593,44	1784,90
593,64	1641,54
593,84	1748,03
594,04	1700,93
594,24	1711,17
594,45	1702,98
594,65	1692,74
594,85	1666,11
595,05	1700,93
595,25	1535,04
595,46	1619,01
595,66	1590,34
595,86	1549,38
596,06	1528,90
596,26	1645,63
596,46	1557,57
596,67	1510,47
596,87	1453,12
597,07	1500,23
597,27	1451,08
597,47	1414,21
597,67	1463,36
597,88	1383,49
598,08	1346,63
598,28	1397,83
598,48	1360,97
598,68	1254,47
598,88	1328,20
599,09	1442,89
599,29	1274,95
599,49	1262,66
599,69	1332,29
599,89	1141,83
600,09	1190,98
600,30	1231,94
600,50	1193,03
600,70	1141,83
600,90	1160,27
601,10	1186,89
601,30	1127,50
601,50	1211,46
601,71	1162,31
601,91	1100,87
602,11	959,56
602,31	1012,81
602,51	1016,91
602,71	949,32
602,91	963,66
603,11	869,45
603,32	943,18
603,52	951,37
603,72	914,51
603,92	861,26
604,12	916,56
604,32	889,93
604,52	855,12
604,72	791,63
604,93	908,37
605,13	859,21
605,33	883,79
605,53	681,04
605,73	801,87
605,93	889,93
606,13	678,99
606,33	875,60
606,53	826,45
606,74	738,38
606,94	871,50
607,14	728,14
607,34	799,82
607,54	658,51
607,74	900,17
607,94	678,99
608,14	889,93
608,34	650,32
608,54	789,58
608,74	713,81
608,95	664,66
609,15	781,39
609,35	717,90
609,55	754,77
609,75	711,76
609,95	750,67
610,15	744,53
610,35	707,66
610,55	701,52
610,75	674,90
610,95	652,37
611,15	752,72
611,35	740,43
611,55	744,53
611,76	826,45
611,96	701,52
612,16	795,73
612,36	767,06
612,56	771,15
612,76	644,18
612,96	717,90
613,16	762,96
613,36	715,86
613,56	728,14
613,76	597,07
613,96	658,51
614,16	504,92
614,36	476,24
614,56	523,35
614,76	640,08
614,96	670,80
615,16	543,83
615,36	513,11
615,56	480,34
615,76	496,72
615,97	554,07
616,17	511,06
616,37	638,03
616,57	511,06
616,77	533,59
616,97	590,93
617,17	402,52
617,37	572,50
617,57	496,72
617,77	502,87
617,97	523,35
618,17	406,61
618,37	490,58
618,57	468,05
618,77	474,20
618,97	398,42
619,17	486,48
619,37	482,39
619,57	445,52
619,77	384,09
619,97	474,20
620,17	451,67
620,37	568,40
620,57	400,47
620,77	506,96
620,97	435,28
621,17	429,14
621,37	347,22
621,57	445,52
621,77	363,61
621,97	486,48
622,17	386,13
622,37	549,97
622,57	513,11
622,77	515,16
622,97	384,09
623,17	353,37
623,37	590,93
623,57	445,52
623,77	416,85
623,97	291,93
624,16	359,51
624,36	377,94
624,56	377,94
624,76	437,33
624,96	300,12
625,16	433,24
625,36	420,95
625,56	322,65
625,76	347,22
625,96	351,32
626,16	386,13
626,36	363,61
626,56	488,53
626,76	320,60
626,96	312,41
627,16	425,04
627,36	312,41
627,56	455,76
627,76	388,18
627,96	302,17
628,16	394,33
628,35	433,24
628,55	318,55
628,75	373,85
628,95	271,45
629,15	429,14
629,35	302,17
629,55	322,65
629,75	435,28
629,95	351,32
630,15	377,94
630,35	355,41
630,55	347,22
630,75	304,21
630,95	431,19
631,14	351,32
631,34	269,40
631,54	308,31
631,74	306,26
631,94	312,41
632,14	228,44
632,34	322,65
632,54	320,60
632,74	377,94
632,94	255,06
633,14	361,56
633,33	203,86
633,53	289,88
633,73	404,56
633,93	322,65
634,13	281,69
634,33	367,70
634,53	199,77
634,73	318,55
634,93	189,53
635,12	320,60
635,32	339,03
635,52	275,54
635,72	187,48
635,92	232,54
636,12	427,09
636,32	261,21
636,52	287,83
636,71	222,30
636,91	291,93
637,11	259,16
637,31	287,83
637,51	150,62
637,71	365,65
637,91	167,00
638,11	279,64
638,30	244,82
638,50	312,41
638,70	369,75
638,90	312,41
639,10	222,30
639,30	191,58
639,50	300,12
639,69	226,39
639,89	197,72
640,09	234,58
640,29	308,31
640,49	150,62
640,69	195,67
640,88	205,91
641,08	240,73
641,28	320,60
641,48	246,87
641,68	205,91
641,88	263,26
642,07	232,54
642,27	277,59
642,47	275,54
642,67	207,96
642,87	281,69
643,07	220,25
643,26	255,06
643,46	242,78
643,66	199,77
643,86	296,02
644,06	287,83
644,26	287,83
644,45	195,67
644,65	259,16
644,85	240,73
645,05	230,49
645,25	322,65
645,44	189,53
645,64	181,34
645,84	246,87
646,04	232,54
646,24	265,30
646,43	308,31
646,63	349,27
646,83	259,16
647,03	314,45
647,23	83,03
647,42	222,30
647,62	191,58
647,82	154,71
648,02	146,52
648,22	365,65
648,41	234,58
648,61	160,86
648,81	300,12
649,01	226,39
649,20	300,12
649,40	181,34
649,60	322,65
649,80	250,97
650,00	189,53
650,19	142,42
650,39	210,01
650,59	283,73
650,79	244,82
650,98	169,05
651,18	199,77
651,38	150,62
651,58	193,62
651,77	228,44
651,97	195,67
652,17	183,38
652,37	212,06
652,56	140,38
652,76	126,04
652,96	218,20
653,16	164,95
653,35	105,56
653,55	236,63
653,75	148,57
653,95	302,17
654,14	177,24
654,34	216,15
654,54	154,71
654,74	193,62
654,93	138,33
655,13	203,86
655,33	93,27
655,52	203,86
655,72	285,78
655,92	109,66
656,12	138,33
656,31	191,58
656,51	193,62
656,71	158,81
656,91	183,38
657,10	171,10
657,30	150,62
657,50	134,23
657,69	183,38
657,89	222,30
658,09	218,20
658,29	218,20
658,48	242,78
658,68	175,19
658,88	253,02
659,07	185,43
659,27	277,59
659,47	183,38
659,66	269,40
659,86	68,70
660,06	203,86
660,26	150,62
660,45	259,16
660,65	287,83
660,85	236,63
661,04	193,62
661,24	306,26
661,44	130,14
661,63	232,54
661,83	228,44
662,03	203,86
662,22	253,02
662,42	164,95
662,62	183,38
662,81	152,66
663,01	185,43
663,21	263,26
663,40	93,27
663,60	285,78
663,80	187,48
663,99	265,30
664,19	226,39
664,39	240,73
664,58	169,05
664,78	230,49
664,98	140,38
665,17	185,43
665,37	177,24
665,57	283,73
665,76	232,54
665,96	128,09
666,16	177,24
666,35	228,44
666,55	183,38
666,74	201,82
666,94	275,54
667,14	193,62
667,33	140,38
667,53	148,57
667,73	228,44
667,92	160,86
668,12	142,42
668,32	244,82
668,51	128,09
668,71	201,82
668,90	91,23
669,10	197,72
669,30	136,28
669,49	205,91
669,69	293,97
669,89	148,57
670,08	144,47
670,28	414,80
670,47	222,30
670,67	123,99
670,87	201,82
671,06	267,35
671,26	238,68
671,45	158,81
671,65	312,41
671,85	130,14
672,04	169,05
672,24	160,86
672,43	216,15
672,63	150,62
672,83	107,61
673,02	126,04
673,22	117,85
673,41	169,05
673,61	146,52
673,81	164,95
674,00	271,45
674,20	144,47
674,39	97,37
674,59	142,42
674,78	162,90
674,98	298,07
675,18	193,62
675,37	144,47
675,57	148,57
675,76	183,38
675,96	216,15
676,15	162,90
676,35	220,25
676,55	156,76
676,74	179,29
676,94	171,10
677,13	160,86
677,33	158,81
677,52	191,58
677,72	185,43
677,91	109,66
678,11	115,80
678,31	169,05
678,50	128,09
678,70	193,62
678,89	210,01
679,09	193,62
679,28	197,72
679,48	207,96
679,67	177,24
679,87	167,00
680,06	371,80
680,26	257,11
680,46	146,52
680,65	162,90
680,85	89,18
681,04	167,00
681,24	177,24
681,43	58,46
681,63	123,99
681,82	232,54
682,02	64,60
682,21	181,34
682,41	144,47
682,60	273,49
682,80	123,99
682,99	203,86
683,19	138,33
683,38	234,58
683,58	156,76
683,77	169,05
683,97	142,42
684,16	207,96
684,36	119,90
684,55	136,28
684,75	103,51
684,94	220,25
685,14	199,77
685,33	123,99
685,53	97,37
685,72	146,52
685,92	193,62
686,11	154,71
686,31	171,10
686,50	226,39
686,70	226,39
686,89	132,19
687,09	199,77
687,28	195,67
687,48	150,62
687,67	179,29
687,87	148,57
688,06	146,52
688,26	250,97
688,45	156,76
688,65	119,90
688,84	246,87
689,03	89,18
689,23	121,95
689,42	246,87
689,62	162,90
689,81	234,58
690,01	175,19
690,20	152,66
690,40	148,57
690,59	304,21
690,79	113,75
690,98	205,91
691,17	158,81
691,37	193,62
691,56	93,27
691,76	228,44
691,95	207,96
692,15	80,99
692,34	191,58
692,54	179,29
692,73	128,09
692,92	226,39
693,12	222,30
693,31	111,71
693,51	189,53
693,70	107,61
693,90	199,77
694,09	138,33
694,28	162,90
694,48	197,72
694,67	218,20
694,87	154,71
695,06	193,62
695,26	154,71
695,45	146,52
695,64	154,71
695,84	207,96
696,03	201,82
696,23	128,09
696,42	144,47
696,61	193,62
696,81	80,99
697,00	134,23
697,20	195,67
697,39	179,29
697,58	128,09
697,78	238,68
697,97	193,62
698,17	105,56
698,36	89,18
698,55	95,32
698,75	232,54
698,94	216,15
699,14	83,03
699,33	138,33
699,52	164,95
699,72	216,15
699,91	169,05
700,10	246,87
700,30	171,10
700,49	169,05
700,69	136,28
700,88	146,52
701,07	171,10
701,27	142,42
701,46	328,79
701,65	177,24
701,85	140,38
702,04	285,78
702,23	160,86
702,43	107,61
702,62	128,09
702,82	238,68
703,01	361,56
703,20	191,58
703,40	193,62
703,59	214,10
703,78	246,87
703,98	220,25
704,17	150,62
704,36	162,90
704,56	265,30
704,75	97,37
704,94	117,85
705,14	154,71
705,33	212,06
705,52	187,48
705,72	177,24
705,91	216,15
706,10	117,85
706,30	220,25
706,49	269,40
706,68	236,63
706,88	169,05
707,07	185,43
707,26	144,47
707,46	291,93
707,65	230,49
707,84	185,43
708,04	105,56
708,23	255,06
708,42	248,92
708,62	185,43
708,81	205,91
709,00	314,45
709,19	199,77
709,39	173,14
709,58	246,87
709,77	109,66
709,97	164,95
710,16	199,77
710,35	298,07
710,55	203,86
710,74	222,30
710,93	214,10
711,12	205,91
711,32	113,75
711,51	259,16
711,70	132,19
711,90	158,81
712,09	150,62
712,28	201,82
712,47	218,20
712,67	195,67
712,86	207,96
713,05	285,78
713,24	283,73
713,44	169,05
713,63	140,38
713,82	158,81
714,02	144,47
714,21	273,49
714,40	214,10
714,59	189,53
714,79	130,14
714,98	138,33
715,17	339,03
715,36	193,62
715,56	273,49
715,75	214,10
715,94	226,39
716,13	242,78
716,33	181,34
716,52	146,52
716,71	197,72
716,90	185,43
717,10	156,76
717,29	185,43
717,48	222,30
717,67	187,48
717,87	279,64
718,06	195,67
718,25	248,92
718,44	203,86
718,63	185,43
718,83	74,84
719,02	232,54
719,21	134,23
719,40	66,65
719,60	101,47
719,79	201,82
719,98	238,68
720,17	169,05
720,36	222,30
720,56	197,72
720,75	148,57
720,94	132,19
721,13	152,66
721,33	224,34
721,52	179,29
721,71	261,21
721,90	285,78
722,09	167,00
722,29	203,86
722,48	130,14
722,67	199,77
722,86	285,78
723,05	205,91
723,24	273,49
723,44	193,62
723,63	148,57
723,82	269,40
724,01	146,52
724,20	222,30
724,40	132,19
724,59	167,00
724,78	134,23
724,97	177,24
725,16	203,86
725,35	181,34
725,55	138,33
725,74	271,45
725,93	289,88
726,12	195,67
726,31	228,44
726,51	308,31
726,70	195,67
726,89	267,35
727,08	144,47
727,27	271,45
727,46	277,59
727,65	171,10
727,85	152,66
728,04	236,63
728,23	171,10
728,42	191,58
728,61	210,01
728,80	203,86
729,00	259,16
729,19	246,87
729,38	238,68
729,57	214,10
729,76	107,61
729,95	375,89
730,14	210,01
730,33	240,73
730,53	162,90
730,72	216,15
730,91	136,28
731,10	375,89
731,29	324,69
731,48	310,36
731,67	156,76
731,86	193,62
732,06	193,62
732,25	236,63
732,44	244,82
732,63	177,24
732,82	248,92
733,01	267,35
733,20	183,38
733,39	136,28
733,59	72,79
733,78	226,39
733,97	345,17
734,16	207,96
734,35	244,82
734,54	222,30
734,73	236,63
734,92	277,59
735,11	150,62
735,30	195,67
735,49	248,92
735,69	269,40
735,88	250,97
736,07	271,45
736,26	160,86
736,45	300,12
736,64	187,48
736,83	304,21
737,02	226,39
737,21	210,01
737,40	193,62
737,59	371,80
737,78	164,95
737,98	246,87
738,17	234,58
738,36	314,45
738,55	210,01
738,74	265,30
738,93	179,29
739,12	154,71
739,31	189,53
739,50	158,81
739,69	230,49
739,88	220,25
740,07	271,45
740,26	326,74
740,45	353,37
740,64	267,35
740,83	222,30
741,02	195,67
741,22	318,55
741,41	314,45
741,60	250,97
741,79	275,54
741,98	255,06
742,17	216,15
742,36	267,35
742,55	119,90
742,74	488,53
742,93	271,45
743,12	285,78
743,31	203,86
743,50	289,88
743,69	285,78
743,88	246,87
744,07	263,26
744,26	388,18
744,45	224,34
744,64	255,06
744,83	259,16
745,02	113,75
745,21	212,06
745,40	318,55
745,59	296,02
745,78	218,20
745,97	298,07
746,16	271,45
746,35	314,45
746,54	207,96
746,73	177,24
746,92	304,21
747,11	109,66
747,30	218,20
747,49	279,64
747,68	220,25
747,87	193,62
748,06	261,21
748,25	201,82
748,44	232,54
748,63	353,37
748,82	199,77
749,01	244,82
749,20	201,82
749,39	175,19
749,58	234,58
749,77	234,58
749,96	240,73
750,15	212,06
750,34	201,82
750,53	332,89
750,72	287,83
750,91	171,10
751,10	373,85
751,29	214,10
751,48	142,42
751,67	226,39
751,86	291,93
752,04	347,22
752,23	205,91
752,42	228,44
752,61	259,16
752,80	334,93
752,99	210,01
753,18	261,21
753,37	240,73
753,56	154,71
753,75	187,48
753,94	191,58
754,13	216,15
754,32	173,14
754,51	177,24
754,70	277,59
754,89	185,43
755,08	230,49
755,27	68,70
755,45	201,82
755,64	263,26
755,83	253,02
756,02	345,17
756,21	181,34
756,40	185,43
756,59	271,45
756,78	146,52
756,97	210,01
757,16	177,24
757,35	302,17
757,54	181,34
757,72	310,36
757,91	187,48
758,10	259,16
758,29	162,90
758,48	277,59
758,67	242,78
758,86	132,19
759,05	146,52
759,24	189,53
759,43	224,34
759,61	50,27
759,80	160,86
759,99	183,38
760,18	199,77
760,37	187,48
760,56	169,05
760,75	195,67
760,94	228,44
761,13	130,14
761,31	328,79
761,50	160,86
761,69	156,76
761,88	228,44
762,07	93,27
762,26	218,20
762,45	152,66
762,64	160,86
762,82	152,66
763,01	289,88
763,20	193,62
763,39	121,95
763,58	152,66
763,77	74,84
763,96	111,71
764,14	164,95
764,33	146,52
764,52	134,23
764,71	281,69
764,90	240,73
765,09	169,05
765,27	195,67
765,46	154,71
765,65	156,76
765,84	212,06
766,03	201,82
766,22	236,63
766,41	171,10
766,59	134,23
766,78	183,38
766,97	152,66
767,16	210,01
767,35	154,71
767,54	320,60
767,72	236,63
767,91	312,41
768,10	160,86
768,29	152,66
768,48	224,34
768,66	162,90
768,85	244,82
769,04	207,96
769,23	191,58
769,42	220,25
769,61	238,68
769,79	285,78
769,98	232,54
770,17	218,20
770,36	324,69
770,55	201,82
770,73	222,30
770,92	207,96
771,11	222,30
771,30	181,34
771,49	183,38
771,67	326,74
771,86	246,87
772,05	152,66
772,24	240,73
772,42	154,71
772,61	232,54
772,80	169,05
772,99	177,24
773,18	185,43
773,36	185,43
773,55	126,04
773,74	205,91
773,93	232,54
774,11	85,08
774,30	175,19
774,49	140,38
774,68	285,78
774,87	281,69
775,05	156,76
775,24	179,29
775,43	259,16
775,62	183,38
775,80	277,59
775,99	257,11
776,18	293,97
776,37	144,47
776,55	269,40
776,74	173,14
776,93	142,42
777,12	277,59
777,30	121,95
777,49	123,99
777,68	236,63
777,87	146,52
778,05	179,29
778,24	142,42
778,43	185,43
778,62	154,71
778,80	230,49
778,99	257,11
779,18	269,40
779,36	275,54
779,55	119,90
779,74	162,90
779,93	234,58
780,11	273,49
780,30	115,80
780,49	236,63
780,68	132,19
780,86	275,54
781,05	185,43
781,24	216,15
781,42	293,97
781,61	275,54
781,80	171,10
781,98	214,10
782,17	171,10
782,36	199,77
782,55	183,38
782,73	218,20
782,92	228,44
783,11	203,86
783,29	193,62
783,48	189,53
783,67	220,25
783,85	164,95
784,04	236,63
784,23	230,49
784,42	130,14
784,60	175,19
784,79	207,96
784,98	230,49
785,16	228,44
785,35	148,57
785,54	199,77
785,72	302,17
785,91	263,26
786,10	130,14
786,28	253,02
786,47	230,49
786,66	146,52
786,84	312,41
787,03	255,06
787,22	193,62
787,40	138,33
787,59	236,63
787,78	250,97
787,96	152,66
788,15	179,29
788,34	177,24
788,52	199,77
788,71	257,11
788,89	201,82
789,08	95,32
789,27	265,30
789,45	193,62
789,64	187,48
789,83	142,42
790,01	220,25
790,20	279,64
790,39	134,23
790,57	130,14
790,76	199,77
790,95	123,99
791,13	179,29
791,32	156,76
791,50	285,78
791,69	201,82
791,88	279,64
792,06	291,93
792,25	246,87
792,43	123,99
792,62	226,39
792,81	109,66
792,99	171,10
793,18	191,58
793,37	220,25
793,55	191,58
793,74	259,16
793,92	296,02
794,11	185,43
794,30	115,80
794,48	158,81
794,67	171,10
794,85	183,38
795,04	128,09
795,23	201,82
795,41	152,66
795,60	197,72
795,78	234,58
795,97	310,36
796,15	275,54
796,34	318,55
796,53	162,90
796,71	265,30
796,90	160,86
797,08	105,56
797,27	205,91
797,46	152,66
797,64	126,04
797,83	185,43
798,01	187,48
798,20	269,40
798,38	250,97
798,57	132,19
798,76	107,61
798,94	115,80
799,13	146,52
799,31	269,40
799,50	78,94
799,68	158,81
799,87	89,18
800,05	177,24
800,24	123,99
800,43	78,94
800,61	316,50
800,80	255,06
800,98	140,38
801,17	93,27
801,35	169,05
801,54	230,49
801,72	97,37
801,91	234,58
802,09	138,33
802,28	95,32
802,46	185,43
802,65	203,86
802,84	216,15
803,02	236,63
803,21	101,47
803,39	101,47
803,58	257,11
803,76	187,48
803,95	234,58
804,13	70,75
804,32	197,72
804,50	291,93
804,69	242,78
804,87	195,67
805,06	224,34
805,24	269,40
805,43	142,42
805,61	150,62
805,80	158,81
805,98	203,86
806,17	150,62
806,35	132,19
806,54	232,54
806,72	197,72
806,91	95,32
807,09	214,10
807,28	226,39
807,46	230,49
807,65	263,26
807,83	132,19
808,02	76,89
808,20	203,86
808,39	130,14
808,57	226,39
808,76	189,53
808,94	267,35
809,13	134,23
809,31	160,86
809,49	220,25
809,68	167,00
809,86	195,67
810,05	169,05
810,23	183,38
810,42	156,76
810,60	185,43
810,79	115,80
810,97	95,32
811,16	175,19
811,34	291,93
811,53	216,15
811,71	83,03
811,89	248,92
812,08	183,38
812,26	132,19
812,45	187,48
812,63	109,66
812,82	207,96
813,00	74,84
813,19	123,99
813,37	177,24
813,55	126,04
813,74	52,31
813,92	257,11
814,11	95,32
814,29	-7,08
814,48	167,00
814,66	220,25
814,84	156,76
815,03	148,57
815,21	207,96
815,40	185,43
815,58	199,77
815,77	210,01
815,95	160,86
816,13	134,23
816,32	244,82
816,50	253,02
816,69	144,47
816,87	87,13
817,05	193,62
817,24	167,00
817,42	89,18
817,61	167,00
817,79	171,10
817,97	167,00
818,16	95,32
818,34	218,20
818,53	-23,46
818,71	185,43
818,89	126,04
819,08	193,62
819,26	134,23
819,45	107,61
819,63	191,58
819,81	154,71
820,00	300,12
820,18	126,04
820,36	205,91
820,55	150,62
820,73	29,79
820,92	115,80
821,10	103,51
821,28	175,19
821,47	218,20
821,65	154,71
821,83	320,60
822,02	212,06
822,20	89,18
822,39	85,08
822,57	162,90
822,75	148,57
822,94	148,57
823,12	89,18
823,30	33,88
823,49	185,43
823,67	169,05
823,85	162,90
824,04	87,13
824,22	189,53
824,40	171,10
824,59	177,24
824,77	187,48
824,95	136,28
825,14	189,53
825,32	281,69
825,50	187,48
825,69	70,75
825,87	183,38
826,05	162,90
826,24	205,91
826,42	187,48
826,60	177,24
826,79	111,71
826,97	119,90
827,15	167,00
827,34	103,51
827,52	64,60
827,70	89,18
827,89	138,33
828,07	136,28
828,25	177,24
828,44	228,44
828,62	148,57
828,80	234,58
828,98	197,72
829,17	-2,98
829,35	222,30
829,53	146,52
829,72	160,86
829,90	89,18
830,08	140,38
830,27	242,78
830,45	248,92
830,63	185,43
830,81	107,61
831,00	181,34
831,18	136,28
831,36	234,58
831,55	128,09
831,73	91,23
831,91	117,85
832,09	275,54
832,28	226,39
832,46	64,60
832,64	242,78
832,82	68,70
833,01	216,15
833,19	197,72
833,37	78,94
833,55	146,52
833,74	78,94
833,92	177,24
834,10	128,09
834,29	74,84
834,47	83,03
834,65	99,42
834,83	121,95
835,02	99,42
835,20	117,85
835,38	195,67
835,56	169,05
835,75	212,06
835,93	152,66
836,11	115,80
836,29	87,13
836,47	138,33
836,66	85,08
836,84	179,29
837,02	144,47
837,20	126,04
837,39	144,47
837,57	218,20
837,75	158,81
837,93	152,66
838,12	144,47
838,30	52,31
838,48	197,72
838,66	181,34
838,84	169,05
839,03	193,62
839,21	136,28
839,39	119,90
839,57	156,76
839,75	212,06
839,94	66,65
840,12	146,52
840,30	195,67
840,48	144,47
840,66	132,19
840,85	21,59
841,03	154,71
841,21	150,62
841,39	189,53
841,57	99,42
841,76	246,87
841,94	212,06
842,12	146,52
842,30	171,10
842,48	185,43
842,67	146,52
842,85	111,71
843,03	205,91
843,21	207,96
843,39	240,73
843,57	66,65
843,76	119,90
843,94	148,57
844,12	250,97
844,30	31,83
844,48	87,13
844,66	173,14
844,85	220,25
845,03	201,82
845,21	138,33
845,39	181,34
845,57	205,91
845,75	130,14
845,94	132,19
846,12	140,38
846,30	119,90
846,48	93,27
846,66	253,02
846,84	42,07
847,02	128,09
847,21	115,80
847,39	123,99
847,57	136,28
847,75	89,18
847,93	68,70
848,11	107,61
848,29	128,09
848,48	144,47
848,66	115,80
848,84	152,66
849,02	103,51
849,20	164,95
849,38	222,30
849,56	111,71
849,74	130,14
849,93	234,58
850,11	44,12
850,29	46,17
850,47	123,99
850,65	113,75
850,83	119,90
851,01	140,38
851,19	150,62
851,37	138,33
851,56	130,14
851,74	130,14
851,92	74,84
852,10	154,71
852,28	123,99
852,46	62,55
852,64	210,01
852,82	185,43
853,00	142,42
853,18	105,56
853,37	132,19
853,55	111,71
853,73	58,46
853,91	105,56
854,09	74,84
854,27	201,82
854,45	216,15
854,63	136,28
854,81	95,32
854,99	101,47
855,17	107,61
855,35	95,32
855,53	171,10
855,72	80,99
855,90	228,44
856,08	152,66
856,26	46,17
856,44	185,43
856,62	9,31
856,80	1,12
856,98	101,47
857,16	101,47
857,34	142,42
857,52	177,24
857,70	183,38
857,88	115,80
858,06	185,43
858,24	119,90
858,42	250,97
858,60	152,66
858,78	78,94
858,96	72,79
859,15	148,57
859,33	130,14
859,51	119,90
859,69	158,81
859,87	111,71
860,05	177,24
860,23	103,51
860,41	74,84
860,59	158,81
860,77	185,43
860,95	185,43
861,13	89,18
861,31	138,33
861,49	191,58
861,67	138,33
861,85	177,24
862,03	152,66
862,21	123,99
862,39	171,10
862,57	222,30
862,75	134,23
862,93	134,23
863,11	226,39
863,29	87,13
863,47	183,38
863,65	103,51
863,83	95,32
864,01	177,24
864,19	70,75
864,37	70,75
864,55	101,47
864,73	27,74
864,91	93,27
865,09	164,95
865,27	109,66
865,45	140,38
865,63	189,53
865,81	117,85
865,99	187,48
866,17	136,28
866,35	183,38
866,53	146,52
866,71	148,57
866,89	130,14
867,07	175,19
867,24	58,46
867,42	146,52
867,60	212,06
867,78	214,10
867,96	173,14
868,14	154,71
868,32	261,21
868,50	177,24
868,68	103,51
868,86	134,23
869,04	246,87
869,22	42,07
869,40	146,52
869,58	91,23
869,76	48,22
869,94	21,59
870,12	29,79
870,30	56,41
870,48	83,03
870,66	146,52
870,83	93,27
871,01	130,14
871,19	87,13
871,37	136,28
871,55	23,64
871,73	46,17
871,91	158,81
872,09	85,08
872,27	164,95
872,45	31,83
872,63	56,41
872,81	64,60
872,98	195,67
873,16	152,66
873,34	136,28
873,52	138,33
873,70	78,94
873,88	210,01
874,06	60,51
874,24	177,24
874,42	54,36
874,60	111,71
874,78	89,18
874,95	130,14
875,13	175,19
875,31	101,47
875,49	177,24
875,67	60,51
875,85	46,17
876,03	87,13
876,21	140,38
876,39	130,14
876,56	154,71
876,74	15,45
876,92	109,66
877,10	171,10
877,28	74,84
877,46	150,62
877,64	185,43
877,82	160,86
877,99	56,41
878,17	187,48
878,35	89,18
878,53	150,62
878,71	154,71
878,89	83,03
879,07	138,33
879,24	111,71
879,42	236,63
879,60	105,56
879,78	128,09
879,96	66,65
880,14	259,16
880,32	66,65
880,49	50,27
880,67	177,24
880,85	138,33
881,03	23,64
881,21	113,75
881,39	138,33
881,56	160,86
881,74	101,47
881,92	31,83
882,10	177,24
882,28	189,53
882,46	158,81
882,63	1,12
882,81	25,69
882,99	78,94
883,17	132,19
883,35	193,62
883,52	138,33
883,70	95,32
883,88	58,46
884,06	173,14
884,24	128,09
884,42	230,49
884,59	156,76
884,77	128,09
884,95	150,62
885,13	158,81
885,31	130,14
885,48	87,13
885,66	234,58
885,84	167,00
886,02	70,75
886,20	136,28
886,37	117,85
886,55	220,25
886,73	134,23
886,91	119,90
887,08	138,33
887,26	123,99
887,44	119,90
887,62	17,50
887,80	78,94
887,97	164,95
888,15	136,28
888,33	140,38
888,51	85,08
888,68	74,84
888,86	177,24
889,04	91,23
889,22	132,19
889,40	56,41
889,57	146,52
889,75	244,82
889,93	109,66
890,11	156,76
890,28	95,32
890,46	134,23
890,64	173,14
890,82	187,48
890,99	126,04
891,17	117,85
891,35	44,12
891,53	152,66
891,70	74,84
891,88	138,33
892,06	142,42
892,24	146,52
892,41	85,08
892,59	62,55
892,77	117,85
892,94	109,66
893,12	29,79
893,30	91,23
893,48	121,95
893,65	128,09
893,83	25,69
894,01	144,47
894,19	148,57
894,36	257,11
894,54	80,99
894,72	126,04
894,89	37,98
895,07	132,19
895,25	103,51
895,43	-2,98
895,60	70,75
895,78	152,66
895,96	87,13
896,13	97,37
896,31	167,00
896,49	138,33
896,66	64,60
896,84	171,10
897,02	183,38
897,20	119,90
897,37	103,51
897,55	-2,98
897,73	121,95
897,90	111,71
898,08	111,71
898,26	160,86
898,43	101,47
898,61	128,09
898,79	74,84
898,96	76,89
899,14	107,61
899,32	130,14
899,49	93,27
899,67	25,69
899,85	193,62
900,02	103,51
900,20	44,12
900,38	119,90
900,55	259,16
900,73	271,45
900,91	-50,08
901,08	177,24
901,26	68,70
901,44	130,14
901,61	64,60
901,79	64,60
901,97	146,52
902,14	46,17
902,32	167,00
902,50	33,88
902,67	89,18
902,85	152,66
903,02	58,46
903,20	89,18
903,38	121,95
903,55	40,03
903,73	89,18
903,91	91,23
904,08	255,06
904,26	89,18
904,44	230,49
904,61	27,74
904,79	46,17
904,96	52,31
905,14	40,03
905,32	134,23
905,49	148,57
905,67	62,55
905,84	76,89
906,02	144,47
906,20	70,75
906,37	224,34
906,55	115,80
906,73	123,99
906,90	167,00
907,08	115,80
907,25	64,60
907,43	66,65
907,61	1,12
907,78	89,18
907,96	7,26
908,13	150,62
908,31	238,68
908,48	130,14
908,66	52,31
908,84	103,51
909,01	130,14
909,19	119,90
909,36	50,27
909,54	89,18
909,72	128,09
909,89	-21,41
910,07	74,84
910,24	201,82
910,42	210,01
910,59	35,93
910,77	60,51
910,95	33,88
911,12	83,03
911,30	62,55
911,47	126,04
911,65	107,61
911,82	-5,03
912,00	167,00
912,17	-29,60
912,35	95,32
912,53	115,80
912,70	187,48
912,88	99,42
913,05	109,66
913,23	78,94
913,40	109,66
913,58	35,93
913,75	78,94
913,93	1,12
914,10	31,83
914,28	52,31
914,46	70,75
914,63	21,59
914,81	142,42
914,98	-17,32
915,16	99,42
915,33	-2,98
915,51	201,82
915,68	126,04
915,86	107,61
916,03	68,70
916,21	50,27
916,38	117,85
916,56	-7,08
916,73	210,01
916,91	89,18
917,08	78,94
917,26	64,60
917,43	83,03
917,61	72,79
917,78	218,20
917,96	54,36
918,13	74,84
918,31	115,80
918,48	29,79
918,66	-43,94
918,83	183,38
919,01	89,18
919,18	115,80
919,36	25,69
919,53	126,04
919,71	279,64
919,88	164,95
920,06	105,56
920,23	11,35
920,41	78,94
920,58	70,75
920,76	107,61
920,93	156,76
921,11	-31,65
921,28	50,27
921,45	197,72
921,63	136,28
921,80	144,47
921,98	58,46
922,15	15,45
922,33	52,31
922,50	89,18
922,68	101,47
922,85	62,55
923,03	66,65
923,20	164,95
923,38	138,33
923,55	150,62
923,72	70,75
923,90	195,67
924,07	89,18
924,25	74,84
924,42	173,14
924,60	93,27
924,77	91,23
924,95	185,43
925,12	146,52
925,29	253,02
925,47	31,83
925,64	-21,41
925,82	123,99
925,99	60,51
926,17	78,94
926,34	87,13
926,51	187,48
926,69	91,23
926,86	72,79
927,04	83,03
927,21	138,33
927,38	42,07
927,56	117,85
927,73	189,53
927,91	115,80
928,08	199,77
928,25	189,53
928,43	93,27
928,60	83,03
928,78	117,85
928,95	126,04
929,12	162,90
929,30	91,23
929,47	117,85
929,65	-25,51
929,82	74,84
929,99	134,23
930,17	11,35
930,34	76,89
930,52	95,32
930,69	87,13
930,86	50,27
931,04	27,74
931,21	7,26
931,38	21,59
931,56	64,60
931,73	197,72
931,91	91,23
932,08	64,60
932,25	189,53
932,43	13,40
932,60	76,89
932,77	132,19
932,95	58,46
933,12	171,10
933,29	40,03
933,47	191,58
933,64	58,46
933,82	83,03
933,99	113,75
934,16	54,36
934,34	111,71
934,51	97,37
934,68	175,19
934,86	83,03
935,03	29,79
935,20	60,51
935,38	46,17
935,55	68,70
935,72	93,27
935,90	160,86
936,07	66,65
936,24	48,22
936,42	107,61
936,59	138,33
936,76	150,62
936,94	50,27
937,11	58,46
937,28	46,17
937,46	83,03
937,63	109,66
937,80	134,23
937,97	187,48
938,15	130,14
938,32	72,79
938,49	109,66
938,67	58,46
938,84	128,09
939,01	21,59
939,19	66,65
939,36	158,81
939,53	83,03
939,70	62,55
939,88	87,13
940,05	179,29
940,22	101,47
940,40	164,95
940,57	216,15
940,74	115,80
940,92	193,62
941,09	107,61
941,26	23,64
941,43	140,38
941,61	101,47
941,78	25,69
941,95	144,47
942,12	103,51
942,30	107,61
942,47	154,71
942,64	37,98
942,82	187,48
942,99	148,57
943,16	19,55
943,33	132,19
943,51	5,21
943,68	140,38
943,85	72,79
944,02	144,47
944,20	97,37
944,37	33,88
944,54	80,99
944,71	99,42
944,89	132,19
945,06	5,21
945,23	78,94
945,40	138,33
945,58	103,51
945,75	42,07
945,92	210,01
946,09	138,33
946,27	93,27
946,44	130,14
946,61	201,82
946,78	91,23
946,95	27,74
947,13	52,31
947,30	54,36
947,47	1,12
947,64	52,31
947,82	13,40
947,99	97,37
948,16	68,70
948,33	70,75
948,50	-27,56
948,68	117,85
948,85	33,88
949,02	117,85
949,19	27,74
949,36	78,94
949,54	93,27
949,71	99,42
949,88	42,07
950,05	128,09
950,22	74,84
950,40	144,47
950,57	13,40
950,74	167,00
950,91	109,66
951,08	64,60
951,26	46,17
951,43	17,50
951,60	40,03
951,77	164,95
951,94	138,33
952,11	126,04
952,29	181,34
952,46	23,64
952,63	181,34
952,80	72,79
952,97	56,41
953,15	105,56
953,32	58,46
953,49	130,14
953,66	72,79
953,83	19,55
954,00	46,17
954,17	99,42
954,35	222,30
954,52	-5,03
954,69	85,08
954,86	232,54
955,03	103,51
955,20	74,84
955,38	13,40
955,55	87,13
955,72	169,05
955,89	25,69
956,06	119,90
956,23	76,89
956,40	60,51
956,58	3,16
956,75	80,99
956,92	3,16
957,09	44,12
957,26	136,28
957,43	66,65
957,60	136,28
957,77	62,55
957,95	85,08
958,12	52,31
958,29	103,51
958,46	199,77
958,63	21,59
958,80	-0,93
958,97	158,81
959,14	40,03
959,31	35,93
959,49	121,95
959,66	40,03
959,83	76,89
960,00	27,74
960,17	130,14
960,34	140,38
960,51	83,03
960,68	97,37
960,85	140,38
961,02	-0,93
961,20	87,13
961,37	130,14
961,54	128,09
961,71	48,22
961,88	121,95
962,05	13,40
962,22	121,95
962,39	40,03
962,56	21,59
962,73	21,59
962,90	13,40
963,07	62,55
963,24	70,75
963,42	60,51
963,59	160,86
963,76	167,00
963,93	224,34
964,10	46,17
964,27	48,22
964,44	150,62
964,61	164,95
964,78	146,52
964,95	46,17
965,12	42,07
965,29	83,03
965,46	109,66
965,63	138,33
965,80	101,47
965,97	-13,22
966,14	70,75
966,31	35,93
966,48	111,71
966,66	130,14
966,83	74,84
967,00	78,94
967,17	138,33
967,34	130,14
967,51	50,27
967,68	119,90
967,85	83,03
968,02	214,10
968,19	-31,65
968,36	109,66
968,53	29,79
968,70	109,66
968,87	-7,08
969,04	109,66
969,21	113,75
969,38	177,24
969,55	-15,27
969,72	97,37
969,89	173,14
970,06	60,51
970,23	66,65
970,40	138,33
970,57	66,65
970,74	136,28
970,91	87,13
971,08	29,79
971,25	35,93
971,42	126,04
971,59	50,27
971,76	-41,89
971,93	154,71
972,10	83,03
972,27	83,03
972,44	54,36
972,61	58,46
972,78	54,36
972,95	80,99
973,12	193,62
973,29	121,95
973,46	78,94
973,63	128,09
973,80	132,19
973,97	19,55
974,14	83,03
974,30	140,38
974,47	212,06
974,64	111,71
974,81	21,59
974,98	240,73
975,15	101,47
975,32	95,32
975,49	60,51
975,66	72,79
975,83	119,90
976,00	158,81
976,17	107,61
976,34	46,17
976,51	117,85
976,68	83,03
976,85	87,13
977,02	91,23
977,19	132,19
977,36	31,83
977,52	103,51
977,69	105,56
977,86	111,71
978,03	74,84
978,20	95,32
978,37	121,95
978,54	121,95
978,71	160,86
978,88	193,62
979,05	-43,94
979,22	83,03
979,39	136,28
979,56	95,32
979,72	-11,17
979,89	126,04
980,06	193,62
980,23	136,28
980,40	56,41
980,57	-11,17
980,74	91,23
980,91	40,03
981,08	105,56
981,25	99,42
981,41	78,94
981,58	66,65
981,75	15,45
981,92	60,51
982,09	107,61
982,26	9,31
982,43	7,26
982,60	117,85
982,77	72,79
982,93	93,27
983,10	123,99
983,27	17,50
983,44	97,37
983,61	154,71
983,78	62,55
983,95	21,59
984,11	105,56
984,28	197,72
984,45	46,17
984,62	64,60
984,79	78,94
984,96	136,28
985,13	95,32
985,30	154,71
985,46	83,03
985,63	37,98
985,80	152,66
985,97	40,03
986,14	103,51
986,31	95,32
986,47	58,46
986,64	13,40
986,81	50,27
986,98	99,42
987,15	134,23
987,32	162,90
987,48	78,94
987,65	83,03
987,82	72,79
987,99	80,99
988,16	558,16
988,33	226,39
988,49	85,08
988,66	107,61
988,83	64,60
989,00	150,62
989,17	25,69
989,34	40,03
989,50	111,71
989,67	52,31
989,84	-2,98
990,01	27,74
990,18	56,41
990,34	134,23
990,51	56,41
990,68	56,41
990,85	173,14
991,02	191,58
991,18	80,99
991,35	62,55
991,52	119,90
991,69	-56,23
991,86	21,59
992,02	40,03
992,19	54,36
992,36	115,80
992,53	126,04
992,69	87,13
992,86	101,47
993,03	187,48
993,20	-54,18
993,37	138,33
993,53	199,77
993,70	78,94
993,87	54,36
994,04	42,07
994,20	5,21
994,37	80,99
994,54	111,71
994,71	83,03
994,87	126,04
995,04	134,23
995,21	60,51
995,38	91,23
995,55	56,41
995,71	17,50
995,88	103,51
996,05	121,95
996,22	83,03
996,38	117,85
996,55	-0,93
996,72	-15,27
996,88	199,77
997,05	988,24
997,22	95,32
997,39	50,27
997,55	111,71
997,72	140,38
997,89	64,60
998,06	54,36
998,22	42,07
998,39	66,65
998,56	78,94
998,73	-15,27
998,89	-7,08
999,06	111,71
999,23	66,65
999,39	62,55
999,56	189,53
999,73	80,99
999,90	-15,27
1000,06	154,71
1000,23	78,94
1000,40	181,34
1000,56	78,94
1000,73	40,03
1000,90	40,03
1001,06	113,75
1001,23	-0,93
1001,40	183,38
1001,57	128,09
1001,73	23,64
1001,90	31,83
1002,07	52,31
1002,23	78,94
1002,40	140,38
1002,57	58,46
1002,73	60,51
1002,90	37,98
1003,07	154,71
1003,23	37,98
1003,40	72,79
1003,57	54,36
1003,73	76,89
1003,90	138,33
1004,07	54,36
1004,23	44,12
1004,40	115,80
1004,57	97,37
1004,73	25,69
1004,90	19,55
1005,07	107,61
1005,23	83,03
1005,40	-7,08
1005,57	58,46
1005,73	121,95
1005,90	91,23
1006,07	95,32
1006,23	97,37
1006,40	56,41
1006,57	80,99
1006,73	148,57
1006,90	31,83
1007,06	23,64
1007,23	85,08
1007,40	85,08
1007,56	132,19
1007,73	126,04
1007,90	54,36
1008,06	62,55
1008,23	132,19
1008,40	50,27
1008,56	40,03
1008,73	74,84
1008,89	42,07
1009,06	154,71
1009,23	52,31
1009,39	136,28
1009,56	60,51
1009,72	58,46
1009,89	132,19
1010,06	68,70
1010,22	60,51
1010,39	25,69
1010,55	76,89
1010,72	101,47
1010,89	31,83
1011,05	99,42
1011,22	-2,98
1011,38	80,99
1011,55	19,55
1011,72	33,88
1011,88	74,84
1012,05	115,80
1012,21	101,47
1012,38	62,55
1012,55	109,66
1012,71	-19,36
1012,88	76,89
1013,04	25,69
1013,21	-5,03
1013,37	105,56
1013,54	66,65
1013,71	7,26
1013,87	68,70
1014,04	162,90
1014,20	123,99
1014,37	-2,98
1014,53	48,22
1014,70	87,13
1014,87	70,75
1015,03	234,58
1015,20	87,13
1015,36	31,83
1015,53	144,47
1015,69	78,94
1015,86	134,23
1016,02	78,94
1016,19	91,23
1016,36	13,40
1016,52	-21,41
1016,69	128,09
1016,85	58,46
1017,02	105,56
1017,18	64,60
1017,35	76,89
1017,51	5,21
1017,68	126,04
1017,84	11,35
1018,01	-5,03
1018,17	140,38
1018,34	169,05
1018,50	54,36
1018,67	60,51
1018,84	250,97
1019,00	83,03
1019,17	58,46
1019,33	113,75
1019,50	136,28
1019,66	177,24
1019,83	19,55
1019,99	205,91
1020,16	11,35
1020,32	-25,51
1020,49	107,61
1020,65	121,95
1020,82	134,23
1020,98	222,30
1021,15	115,80
1021,31	134,23
1021,48	119,90
1021,64	-29,60
1021,81	150,62
1021,97	105,56
1022,14	130,14
1022,30	103,51
1022,47	25,69
1022,63	54,36
1022,79	78,94
1022,96	52,31
1023,12	33,88
1023,29	64,60
1023,45	119,90
1023,62	111,71
1023,78	35,93
1023,95	52,31
1024,11	74,84
1024,28	-0,93
1024,44	64,60
1024,61	11,35
1024,77	58,46
1024,94	66,65
1025,10	-41,89
1025,26	-21,41
1025,43	99,42
1025,59	111,71
1025,76	111,71
1025,92	83,03
1026,09	115,80
1026,25	128,09
1026,42	87,13
1026,58	35,93
1026,74	50,27
1026,91	74,84
1027,07	42,07
1027,24	214,10
1027,40	9,31
1027,57	115,80
1027,73	46,17
1027,90	144,47
1028,06	42,07
1028,22	50,27
1028,39	62,55
1028,55	83,03
1028,72	91,23
1028,88	195,67
1029,04	-0,93
1029,21	111,71
1029,37	7,26
1029,54	25,69
1029,70	31,83
1029,87	17,50
1030,03	29,79
1030,19	222,30
1030,36	101,47
1030,52	56,41
1030,69	-68,52
1030,85	9,31
1031,01	128,09
1031,18	42,07
1031,34	175,19
1031,50	3,16
1031,67	72,79
1031,83	117,85
1032,00	46,17
1032,16	68,70
1032,32	37,98
1032,49	113,75
1032,65	167,00
1032,82	64,60
1032,98	19,55
1033,14	37,98
1033,31	113,75
1033,47	203,86
1033,63	119,90
1033,80	134,23
1033,96	31,83
1034,13	72,79
1034,29	95,32
1034,45	54,36
1034,62	91,23
1034,78	130,14
1034,94	83,03
1035,11	66,65
1035,27	111,71
1035,43	80,99
1035,60	50,27
1035,76	-43,94
1035,92	35,93
1036,09	105,56
1036,25	50,27
1036,41	119,90
1036,58	183,38
1036,74	85,08
1036,90	93,27
1037,07	35,93
1037,23	29,79
1037,39	152,66
1037,56	60,51
1037,72	113,75
1037,88	70,75
1038,05	-17,32
1038,21	150,62
1038,37	111,71
1038,54	103,51
1038,70	142,42
1038,86	76,89
1039,03	119,90
1039,19	80,99
1039,35	72,79
1039,52	44,12
1039,68	54,36
1039,84	66,65
1040,00	136,28
1040,17	44,12
1040,33	128,09
1040,49	107,61
1040,66	111,71
1040,82	113,75
1040,98	95,32
1041,15	40,03
1041,31	95,32
1041,47	111,71
1041,63	-43,94
1041,80	115,80
1041,96	199,77
1042,12	74,84
1042,29	80,99
1042,45	130,14
1042,61	23,64
1042,77	68,70
1042,94	76,89
1043,10	234,58
1043,26	7,26
1043,42	19,55
1043,59	113,75
1043,75	60,51
1043,91	9,31
1044,07	58,46
1044,24	89,18
1044,40	78,94
>>>>>End Processed Spectral Data<<<<<
