SpectraSuite Data File
++++++++++++++++++++++++++++++++++++
Date: Mon Nov 09 11:12:56 BRST 2020
User: Administrador
Dark Spectrum Present: No
Reference Spectrum Present: No
Number of Sampled Component Spectra: 1
Spectrometers: USB4F02573
Integration Time (usec): 100000 (USB4F02573)
Spectra Averaged: 1 (USB4F02573)
Boxcar Smoothing: 0 (USB4F02573)
Correct for Electrical Dark: Yes (USB4F02573)
Strobe/Lamp Enabled: No (USB4F02573)
Correct for Detector Non-linearity: No (USB4F02573)
Correct for Stray Light: No (USB4F02573)
Number of Pixels in Processed Spectrum: 3648
>>>>>Begin Processed Spectral Data<<<<<
345,22	-59,64
345,44	-59,64
345,66	-59,64
345,88	-86,26
346,10	-98,55
346,32	128,77
346,54	87,81
346,75	61,19
346,97	24,33
347,19	91,91
347,41	139,01
347,63	75,52
347,85	34,57
348,07	79,62
348,29	130,82
348,51	71,43
348,73	75,52
348,95	-18,68
349,16	9,99
349,38	-24,83
349,60	57,09
349,82	16,13
350,04	32,52
350,26	18,18
350,48	81,67
350,70	102,15
350,92	40,71
351,14	120,58
351,35	177,92
351,57	91,91
351,79	61,19
352,01	-20,73
352,23	87,81
352,45	83,72
352,67	36,61
352,89	79,62
353,10	91,91
353,32	28,42
353,54	53,00
353,76	63,24
353,98	120,58
354,20	69,38
354,42	114,44
354,64	141,06
354,85	79,62
355,07	50,95
355,29	104,20
355,51	124,68
355,73	104,20
355,95	44,81
356,17	75,52
356,38	28,42
356,60	63,24
356,82	124,68
357,04	-49,40
357,26	77,57
357,48	67,33
357,69	-22,78
357,91	53,00
358,13	53,00
358,35	55,04
358,57	120,58
358,79	96,00
359,01	61,19
359,22	128,77
359,44	124,68
359,66	59,14
359,88	38,66
360,10	73,48
360,32	91,91
360,53	104,20
360,75	104,20
360,97	71,43
361,19	-0,25
361,41	130,82
361,62	93,96
361,84	132,87
362,06	65,28
362,28	96,00
362,50	177,92
362,72	42,76
362,93	-12,54
363,15	-104,70
363,37	114,44
363,59	126,72
363,81	36,61
364,02	108,29
364,24	36,61
364,46	169,73
364,68	34,57
364,90	231,17
365,11	55,04
365,33	163,59
365,55	93,96
365,77	9,99
365,99	12,04
366,20	130,82
366,42	83,72
366,64	106,24
366,86	5,89
367,07	106,24
367,29	3,85
367,51	44,81
367,73	32,52
367,95	159,49
368,16	26,37
368,38	122,63
368,60	67,33
368,82	87,81
369,03	136,96
369,25	159,49
369,47	-0,25
369,69	57,09
369,91	65,28
370,12	-14,59
370,34	48,90
370,56	44,81
370,78	112,39
370,99	188,16
371,21	75,52
371,43	40,71
371,65	-20,73
371,86	104,20
372,08	83,72
372,30	73,48
372,52	83,72
372,73	128,77
372,95	57,09
373,17	50,95
373,39	42,76
373,60	69,38
373,82	40,71
374,04	93,96
374,26	71,43
374,47	69,38
374,69	53,00
374,91	139,01
375,12	141,06
375,34	100,10
375,56	91,91
375,78	89,86
375,99	48,90
376,21	151,30
376,43	46,85
376,65	65,28
376,86	59,14
377,08	30,47
377,30	139,01
377,51	20,23
377,73	-16,63
377,95	67,33
378,17	30,47
378,38	14,09
378,60	83,72
378,82	169,73
379,03	130,82
379,25	57,09
379,47	93,96
379,68	77,57
379,90	-30,97
380,12	46,85
380,34	40,71
380,55	85,76
380,77	83,72
380,99	104,20
381,20	202,50
381,42	38,66
381,64	81,67
381,85	77,57
382,07	130,82
382,29	102,15
382,50	153,35
382,72	32,52
382,94	-8,44
383,15	50,95
383,37	98,05
383,59	50,95
383,80	-16,63
384,02	96,00
384,24	57,09
384,45	114,44
384,67	75,52
384,89	20,23
385,10	9,99
385,32	179,97
385,54	136,96
385,75	118,53
385,97	186,11
386,19	93,96
386,40	139,01
386,62	63,24
386,84	93,96
387,05	67,33
387,27	42,76
387,49	79,62
387,70	120,58
387,92	50,95
388,14	-30,97
388,35	46,85
388,57	14,09
388,79	102,15
389,00	61,19
389,22	28,42
389,43	30,47
389,65	106,24
389,87	118,53
390,08	87,81
390,30	55,04
390,52	81,67
390,73	145,16
390,95	61,19
391,17	5,89
391,38	87,81
391,60	130,82
391,81	130,82
392,03	-24,83
392,25	67,33
392,46	-12,54
392,68	120,58
392,89	116,48
393,11	40,71
393,33	114,44
393,54	106,24
393,76	136,96
393,98	69,38
394,19	5,89
394,41	130,82
394,62	-94,46
394,84	93,96
395,06	16,13
395,27	-43,26
395,49	34,57
395,70	136,96
395,92	-20,73
396,13	48,90
396,35	91,91
396,57	40,71
396,78	26,37
397,00	-41,21
397,21	67,33
397,43	89,86
397,65	108,29
397,86	134,92
398,08	44,81
398,29	145,16
398,51	5,89
398,72	145,16
398,94	98,05
399,16	77,57
399,37	120,58
399,59	143,11
399,80	77,57
400,02	134,92
400,23	171,78
400,45	85,76
400,67	143,11
400,88	104,20
401,10	46,85
401,31	26,37
401,53	71,43
401,74	145,16
401,96	28,42
402,17	63,24
402,39	75,52
402,61	-0,25
402,82	65,28
403,04	136,96
403,25	18,18
403,47	139,01
403,68	30,47
403,90	145,16
404,11	-14,59
404,33	96,00
404,54	81,67
404,76	126,72
404,97	96,00
405,19	98,05
405,41	161,54
405,62	163,59
405,84	-39,16
406,05	184,07
406,27	81,67
406,48	132,87
406,70	71,43
406,91	71,43
407,13	81,67
407,34	3,85
407,56	208,64
407,77	36,61
407,99	110,34
408,20	100,10
408,42	85,76
408,63	50,95
408,85	55,04
409,06	98,05
409,28	184,07
409,49	-8,44
409,71	83,72
409,92	124,68
410,14	40,71
410,35	126,72
410,57	77,57
410,78	42,76
411,00	40,71
411,21	93,96
411,43	167,68
411,64	77,57
411,86	63,24
412,07	132,87
412,29	53,00
412,50	63,24
412,72	118,53
412,93	171,78
413,15	71,43
413,36	18,18
413,58	200,45
413,79	98,05
414,01	81,67
414,22	110,34
414,43	147,20
414,65	120,58
414,86	36,61
415,08	104,20
415,29	153,35
415,51	-14,59
415,72	32,52
415,94	69,38
416,15	108,29
416,37	126,72
416,58	12,04
416,80	93,96
417,01	93,96
417,22	112,39
417,44	91,91
417,65	124,68
417,87	112,39
418,08	208,64
418,30	63,24
418,51	61,19
418,73	87,81
418,94	75,52
419,15	69,38
419,37	120,58
419,58	48,90
419,80	36,61
420,01	91,91
420,23	85,76
420,44	83,72
420,65	98,05
420,87	134,92
421,08	143,11
421,30	175,88
421,51	9,99
421,73	42,76
421,94	48,90
422,15	112,39
422,37	69,38
422,58	14,09
422,80	12,04
423,01	120,58
423,22	81,67
423,44	46,85
423,65	38,66
423,87	63,24
424,08	145,16
424,29	63,24
424,51	50,95
424,72	34,57
424,94	24,33
425,15	89,86
425,36	96,00
425,58	116,48
425,79	186,11
426,01	130,82
426,22	48,90
426,43	136,96
426,65	20,23
426,86	59,14
427,08	104,20
427,29	9,99
427,50	40,71
427,72	5,89
427,93	120,58
428,14	53,00
428,36	7,94
428,57	36,61
428,79	145,16
429,00	184,07
429,21	71,43
429,43	79,62
429,64	67,33
429,85	87,81
430,07	67,33
430,28	98,05
430,49	-16,63
430,71	44,81
430,92	118,53
431,14	132,87
431,35	67,33
431,56	124,68
431,78	32,52
431,99	120,58
432,20	63,24
432,42	55,04
432,63	93,96
432,84	61,19
433,06	93,96
433,27	42,76
433,48	55,04
433,70	98,05
433,91	110,34
434,12	9,99
434,34	83,72
434,55	132,87
434,76	53,00
434,98	57,09
435,19	67,33
435,40	22,28
435,62	22,28
435,83	65,28
436,04	28,42
436,26	179,97
436,47	32,52
436,68	57,09
436,90	77,57
437,11	100,10
437,32	100,10
437,54	130,82
437,75	48,90
437,96	104,20
438,17	89,86
438,39	65,28
438,60	102,15
438,81	130,82
439,03	87,81
439,24	73,48
439,45	151,30
439,67	1,80
439,88	114,44
440,09	110,34
440,30	141,06
440,52	16,13
440,73	32,52
440,94	3,85
441,16	75,52
441,37	104,20
441,58	81,67
441,80	110,34
442,01	55,04
442,22	118,53
442,43	63,24
442,65	149,25
442,86	116,48
443,07	116,48
443,28	59,14
443,50	-0,25
443,71	48,90
443,92	40,71
444,14	36,61
444,35	132,87
444,56	53,00
444,77	32,52
444,99	128,77
445,20	134,92
445,41	69,38
445,62	-35,07
445,84	91,91
446,05	57,09
446,26	198,40
446,47	130,82
446,69	40,71
446,90	14,09
447,11	165,64
447,32	14,09
447,54	98,05
447,75	44,81
447,96	71,43
448,17	53,00
448,39	-61,69
448,60	28,42
448,81	136,96
449,02	77,57
449,23	46,85
449,45	118,53
449,66	151,30
449,87	61,19
450,08	81,67
450,30	55,04
450,51	55,04
450,72	63,24
450,93	83,72
451,15	57,09
451,36	126,72
451,57	122,63
451,78	132,87
451,99	38,66
452,21	83,72
452,42	63,24
452,63	34,57
452,84	65,28
453,05	22,28
453,27	55,04
453,48	214,79
453,69	5,89
453,90	126,72
454,11	42,76
454,33	61,19
454,54	67,33
454,75	67,33
454,96	85,76
455,17	93,96
455,39	159,49
455,60	75,52
455,81	71,43
456,02	96,00
456,23	77,57
456,45	61,19
456,66	73,48
456,87	91,91
457,08	122,63
457,29	192,26
457,50	-26,87
457,72	134,92
457,93	55,04
458,14	85,76
458,35	155,40
458,56	83,72
458,77	65,28
458,99	98,05
459,20	120,58
459,41	139,01
459,62	110,34
459,83	28,42
460,04	14,09
460,26	177,92
460,47	89,86
460,68	79,62
460,89	122,63
461,10	134,92
461,31	108,29
461,52	3,85
461,74	141,06
461,95	12,04
462,16	55,04
462,37	83,72
462,58	81,67
462,79	100,10
463,00	202,50
463,22	139,01
463,43	136,96
463,64	106,24
463,85	145,16
464,06	136,96
464,27	16,13
464,48	28,42
464,70	36,61
464,91	36,61
465,12	81,67
465,33	188,16
465,54	177,92
465,75	85,76
465,96	118,53
466,17	26,37
466,38	98,05
466,60	87,81
466,81	83,72
467,02	145,16
467,23	79,62
467,44	149,25
467,65	20,23
467,86	149,25
468,07	32,52
468,28	151,30
468,50	36,61
468,71	247,55
468,92	100,10
469,13	32,52
469,34	32,52
469,55	120,58
469,76	1,80
469,97	227,07
470,18	83,72
470,39	167,68
470,60	116,48
470,82	63,24
471,03	44,81
471,24	69,38
471,45	124,68
471,66	136,96
471,87	44,81
472,08	130,82
472,29	36,61
472,50	63,24
472,71	91,91
472,92	147,20
473,13	55,04
473,34	116,48
473,55	81,67
473,77	91,91
473,98	206,59
474,19	100,10
474,40	30,47
474,61	139,01
474,82	22,28
475,03	120,58
475,24	-67,83
475,45	87,81
475,66	190,21
475,87	104,20
476,08	1,80
476,29	85,76
476,50	179,97
476,71	120,58
476,92	85,76
477,13	87,81
477,34	114,44
477,55	155,40
477,76	79,62
477,97	118,53
478,18	106,24
478,40	53,00
478,61	110,34
478,82	93,96
479,03	65,28
479,24	116,48
479,45	69,38
479,66	157,44
479,87	50,95
480,08	75,52
480,29	136,96
480,50	89,86
480,71	112,39
480,92	184,07
481,13	-6,39
481,34	50,95
481,55	42,76
481,76	61,19
481,97	73,48
482,18	179,97
482,39	12,04
482,60	87,81
482,81	20,23
483,02	106,24
483,23	128,77
483,44	116,48
483,65	-43,26
483,86	108,29
484,07	44,81
484,28	91,91
484,49	128,77
484,70	83,72
484,91	61,19
485,12	69,38
485,33	-6,39
485,54	141,06
485,75	50,95
485,96	149,25
486,17	7,94
486,38	18,18
486,59	81,67
486,80	151,30
487,01	38,66
487,21	122,63
487,42	77,57
487,63	274,18
487,84	104,20
488,05	79,62
488,26	231,17
488,47	55,04
488,68	20,23
488,89	206,59
489,10	149,25
489,31	120,58
489,52	71,43
489,73	118,53
489,94	196,35
490,15	79,62
490,36	130,82
490,57	110,34
490,78	14,09
490,99	128,77
491,20	20,23
491,41	184,07
491,61	161,54
491,82	134,92
492,03	118,53
492,24	87,81
492,45	75,52
492,66	50,95
492,87	96,00
493,08	67,33
493,29	18,18
493,50	126,72
493,71	145,16
493,92	63,24
494,13	159,49
494,34	-8,44
494,54	112,39
494,75	53,00
494,96	145,16
495,17	128,77
495,38	126,72
495,59	48,90
495,80	116,48
496,01	196,35
496,22	55,04
496,43	7,94
496,64	61,19
496,84	46,85
497,05	136,96
497,26	186,11
497,47	139,01
497,68	71,43
497,89	38,66
498,10	177,92
498,31	216,83
498,52	169,73
498,72	122,63
498,93	91,91
499,14	28,42
499,35	77,57
499,56	61,19
499,77	69,38
499,98	126,72
500,19	96,00
500,40	96,00
500,60	61,19
500,81	196,35
501,02	63,24
501,23	149,25
501,44	93,96
501,65	77,57
501,86	53,00
502,06	14,09
502,27	147,20
502,48	179,97
502,69	161,54
502,90	202,50
503,11	89,86
503,32	136,96
503,53	83,72
503,73	126,72
503,94	116,48
504,15	163,59
504,36	130,82
504,57	120,58
504,78	104,20
504,98	130,82
505,19	63,24
505,40	141,06
505,61	26,37
505,82	91,91
506,03	141,06
506,23	75,52
506,44	50,95
506,65	145,16
506,86	118,53
507,07	61,19
507,28	98,05
507,48	155,40
507,69	106,24
507,90	69,38
508,11	120,58
508,32	108,29
508,53	55,04
508,73	63,24
508,94	48,90
509,15	147,20
509,36	1,80
509,57	61,19
509,77	73,48
509,98	-0,25
510,19	120,58
510,40	91,91
510,61	44,81
510,81	161,54
511,02	171,78
511,23	190,21
511,44	116,48
511,65	18,18
511,85	106,24
512,06	-2,30
512,27	24,33
512,48	93,96
512,69	110,34
512,89	63,24
513,10	61,19
513,31	122,63
513,52	114,44
513,73	100,10
513,93	184,07
514,14	159,49
514,35	147,20
514,56	188,16
514,76	79,62
514,97	136,96
515,18	145,16
515,39	206,59
515,60	108,29
515,80	130,82
516,01	132,87
516,22	192,26
516,43	77,57
516,63	147,20
516,84	247,55
517,05	136,96
517,26	139,01
517,46	165,64
517,67	204,55
517,88	69,38
518,09	132,87
518,29	83,72
518,50	225,03
518,71	136,96
518,92	85,76
519,12	167,68
519,33	128,77
519,54	114,44
519,75	165,64
519,95	106,24
520,16	132,87
520,37	14,09
520,57	65,28
520,78	286,47
520,99	65,28
521,20	102,15
521,40	83,72
521,61	237,31
521,82	110,34
522,03	12,04
522,23	136,96
522,44	79,62
522,65	75,52
522,85	91,91
523,06	44,81
523,27	73,48
523,48	169,73
523,68	69,38
523,89	104,20
524,10	98,05
524,30	79,62
524,51	81,67
524,72	122,63
524,93	20,23
525,13	145,16
525,34	98,05
525,55	110,34
525,75	157,44
525,96	177,92
526,17	124,68
526,37	157,44
526,58	48,90
526,79	108,29
526,99	69,38
527,20	194,31
527,41	48,90
527,62	79,62
527,82	163,59
528,03	110,34
528,24	71,43
528,44	75,52
528,65	134,92
528,86	61,19
529,06	22,28
529,27	32,52
529,48	67,33
529,68	91,91
529,89	151,30
530,10	124,68
530,30	141,06
530,51	53,00
530,72	73,48
530,92	81,67
531,13	163,59
531,34	114,44
531,54	149,25
531,75	147,20
531,96	194,31
532,16	175,88
532,37	96,00
532,57	118,53
532,78	71,43
532,99	83,72
533,19	75,52
533,40	153,35
533,61	96,00
533,81	163,59
534,02	120,58
534,23	69,38
534,43	96,00
534,64	184,07
534,84	186,11
535,05	69,38
535,26	69,38
535,46	124,68
535,67	106,24
535,88	104,20
536,08	91,91
536,29	61,19
536,49	130,82
536,70	100,10
536,91	-18,68
537,11	108,29
537,32	151,30
537,53	214,79
537,73	141,06
537,94	104,20
538,14	169,73
538,35	134,92
538,56	132,87
538,76	89,86
538,97	155,40
539,17	87,81
539,38	114,44
539,59	179,97
539,79	204,55
540,00	110,34
540,20	124,68
540,41	104,20
540,62	567,04
540,82	147,20
541,03	40,71
541,23	186,11
541,44	175,88
541,64	171,78
541,85	81,67
542,06	126,72
542,26	26,37
542,47	69,38
542,67	243,46
542,88	134,92
543,08	171,78
543,29	128,77
543,50	104,20
543,70	194,31
543,91	136,96
544,11	200,45
544,32	298,75
544,52	214,79
544,73	71,43
544,94	44,81
545,14	91,91
545,35	153,35
545,55	175,88
545,76	167,68
545,96	38,66
546,17	118,53
546,37	202,50
546,58	128,77
546,78	36,61
546,99	128,77
547,20	245,51
547,40	268,03
547,61	126,72
547,81	128,77
548,02	85,76
548,22	194,31
548,43	235,27
548,63	182,02
548,84	163,59
549,04	57,09
549,25	218,88
549,45	153,35
549,66	61,19
549,86	139,01
550,07	126,72
550,27	108,29
550,48	225,03
550,69	155,40
550,89	196,35
551,10	145,16
551,30	274,18
551,51	106,24
551,71	179,97
551,92	147,20
552,12	126,72
552,33	-12,54
552,53	46,85
552,74	153,35
552,94	145,16
553,15	134,92
553,35	237,31
553,56	106,24
553,76	132,87
553,97	173,83
554,17	83,72
554,38	163,59
554,58	106,24
554,79	32,52
554,99	83,72
555,19	163,59
555,40	161,54
555,60	173,83
555,81	89,86
556,01	179,97
556,22	120,58
556,42	143,11
556,63	81,67
556,83	139,01
557,04	63,24
557,24	231,17
557,45	147,20
557,65	83,72
557,86	120,58
558,06	206,59
558,27	247,55
558,47	159,49
558,67	184,07
558,88	106,24
559,08	91,91
559,29	106,24
559,49	173,83
559,70	93,96
559,90	73,48
560,11	186,11
560,31	126,72
560,52	167,68
560,72	98,05
560,92	194,31
561,13	188,16
561,33	173,83
561,54	124,68
561,74	210,69
561,95	120,58
562,15	220,93
562,35	118,53
562,56	149,25
562,76	61,19
562,97	79,62
563,17	208,64
563,38	130,82
563,58	108,29
563,78	75,52
563,99	126,72
564,19	120,58
564,40	194,31
564,60	163,59
564,80	114,44
565,01	128,77
565,21	239,36
565,42	345,86
565,62	155,40
565,83	136,96
566,03	198,40
566,23	198,40
566,44	214,79
566,64	145,16
566,85	89,86
567,05	114,44
567,25	28,42
567,46	200,45
567,66	132,87
567,86	159,49
568,07	38,66
568,27	229,12
568,48	73,48
568,68	118,53
568,88	71,43
569,09	200,45
569,29	126,72
569,50	122,63
569,70	145,16
569,90	184,07
570,11	169,73
570,31	169,73
570,51	153,35
570,72	206,59
570,92	204,55
571,13	239,36
571,33	122,63
571,53	265,99
571,74	145,16
571,94	222,98
572,14	145,16
572,35	128,77
572,55	184,07
572,75	155,40
572,96	235,27
573,16	235,27
573,36	130,82
573,57	198,40
573,77	143,11
573,97	200,45
574,18	186,11
574,38	233,22
574,59	276,23
574,79	235,27
574,99	177,92
575,20	192,26
575,40	130,82
575,60	196,35
575,81	241,41
576,01	175,88
576,21	188,16
576,42	253,70
576,62	290,56
576,82	153,35
577,02	208,64
577,23	214,79
577,43	241,41
577,63	265,99
577,84	216,83
578,04	204,55
578,24	108,29
578,45	171,78
578,65	268,03
578,85	182,02
579,06	321,28
579,26	347,90
579,46	272,13
579,67	280,32
579,87	302,85
580,07	272,13
580,27	259,84
580,48	265,99
580,68	276,23
580,88	376,58
581,09	261,89
581,29	206,59
581,49	308,99
581,69	282,37
581,90	225,03
582,10	282,37
582,30	347,90
582,51	358,14
582,71	280,32
582,91	333,57
583,11	272,13
583,32	347,90
583,52	317,18
583,72	257,79
583,93	333,57
584,13	358,14
584,33	380,67
584,53	306,95
584,74	458,49
584,94	294,66
585,14	294,66
585,34	421,63
585,55	341,76
585,75	474,88
585,95	311,04
586,15	317,18
586,36	429,82
586,56	433,92
586,76	460,54
586,96	384,77
587,17	499,45
587,37	440,06
587,57	419,58
587,77	370,43
587,98	577,28
588,18	450,30
588,38	458,49
588,58	503,55
588,79	464,64
588,99	524,03
589,19	511,74
589,39	538,37
589,60	608,00
589,80	511,74
590,00	626,43
590,20	577,28
590,40	581,37
590,61	593,66
590,81	622,33
591,01	605,95
591,21	632,57
591,42	587,52
591,62	564,99
591,82	610,04
592,02	634,62
592,22	638,72
592,43	708,35
592,63	771,83
592,83	730,87
593,03	710,39
593,23	782,07
593,44	720,63
593,64	839,42
593,84	837,37
594,04	702,20
594,24	837,37
594,45	798,46
594,65	780,03
594,85	816,89
595,05	851,70
595,25	872,18
595,46	876,28
595,66	900,86
595,86	931,58
596,06	872,18
596,26	892,66
596,46	956,15
596,67	890,62
596,87	962,30
597,07	986,87
597,27	1036,02
597,47	1027,83
597,67	1183,48
597,88	1175,28
598,08	1099,51
598,28	1107,70
598,48	1177,33
598,68	1206,00
598,88	1269,49
599,09	1373,94
599,29	1335,03
599,49	1332,98
599,69	1367,79
599,89	1310,45
600,09	1365,74
600,30	1492,72
600,50	1564,40
600,70	1488,62
600,90	1568,49
601,10	1500,91
601,30	1478,38
601,50	1545,97
601,71	1781,48
601,91	1742,57
602,11	1617,65
602,31	1677,04
602,51	1801,96
602,71	1867,50
602,91	1773,29
603,11	1773,29
603,32	2023,14
603,52	1971,94
603,72	2031,33
603,92	1945,32
604,12	2051,81
604,32	2057,96
604,52	2170,60
604,72	2270,95
604,93	2279,14
605,13	2348,77
605,33	2473,70
605,53	2342,63
605,73	2459,36
605,93	2551,52
606,13	2586,33
606,33	2518,75
606,53	2629,34
606,74	2772,70
606,94	2789,08
607,14	2873,05
607,34	2899,67
607,54	2868,95
607,74	2991,83
607,94	3024,60
608,14	3145,43
608,34	3278,55
608,54	3225,30
608,74	3239,64
608,95	3415,76
609,15	3426,00
609,35	3385,04
609,55	3733,20
609,75	3714,77
609,95	3768,01
610,15	3725,00
610,35	3995,34
610,55	3856,07
610,75	4114,12
610,95	4116,17
611,15	4198,09
611,35	4476,61
611,55	4499,14
611,76	4570,82
611,96	4501,19
612,16	4732,61
612,36	4992,70
612,56	5011,13
612,76	5076,66
612,96	5256,89
613,16	5271,22
613,36	5230,26
613,56	5512,88
613,76	5539,51
613,96	5607,09
614,16	5799,60
614,36	5861,04
614,56	6051,50
614,76	6194,86
614,96	6254,25
615,16	6389,41
615,36	6426,28
615,56	6538,91
615,76	6674,08
615,97	6885,02
616,17	7030,43
616,37	7296,66
616,57	7397,01
616,77	7528,08
616,97	7759,50
617,17	7749,26
617,37	7786,13
617,57	8107,66
617,77	8382,09
617,97	8435,33
618,17	8685,19
618,37	8715,90
618,57	8957,57
618,77	9057,92
618,97	9285,24
619,17	9547,38
619,37	9795,18
619,57	9834,10
619,77	9965,17
619,97	10344,04
620,17	10604,13
620,37	10722,91
620,57	10862,18
620,77	11058,78
620,97	11279,96
621,17	11394,65
621,37	11521,62
621,57	11626,07
621,77	11968,08
621,97	12527,17
622,17	12463,69
622,37	12940,86
622,57	13192,76
622,77	13258,30
622,97	13495,86
623,17	13882,93
623,37	14085,68
623,57	14231,08
623,77	14519,85
623,97	14693,93
624,16	14788,13
624,36	15490,59
624,56	15638,04
624,76	15844,88
624,96	16182,80
625,16	16694,79
625,36	16721,41
625,56	17071,62
625,76	17657,34
625,96	17833,46
626,16	18179,57
626,36	18746,86
626,56	19127,78
626,76	19418,59
626,96	19785,18
627,16	20075,99
627,36	20368,85
627,56	21081,54
627,76	21206,47
627,96	21454,27
628,16	22232,50
628,35	22447,54
628,55	22625,71
628,75	23147,94
628,95	23494,05
629,15	24235,41
629,35	24556,94
629,55	24759,69
629,75	25064,84
629,95	26000,76
630,15	26142,07
630,35	26482,03
630,55	27067,75
630,75	27632,99
630,95	27489,63
631,14	28245,33
631,34	28933,45
631,54	29152,58
631,74	29836,61
631,94	30219,58
632,14	31075,63
632,34	30956,85
632,54	31792,42
632,74	32007,45
632,94	32709,91
633,14	33101,07
633,33	33400,07
633,53	33750,27
633,73	34469,11
633,93	35003,63
634,13	35376,36
634,33	35945,70
634,53	35890,40
634,73	36555,99
634,93	36531,42
635,12	37035,22
635,32	37526,73
635,52	37919,94
635,72	38278,33
635,92	38921,40
636,12	38591,67
636,32	39255,21
636,52	39664,81
636,71	39871,65
636,91	40135,84
637,11	40019,11
637,31	40477,85
637,51	40475,80
637,71	40971,41
637,91	40903,83
638,11	40754,33
638,30	40752,28
638,50	41407,63
638,70	41159,83
638,90	40385,69
639,10	40850,58
639,30	40985,75
639,50	40610,97
639,69	41041,04
639,89	40504,48
640,09	40623,26
640,29	40551,58
640,49	39716,01
640,69	39935,14
640,88	39595,18
641,08	39404,72
641,28	39646,38
641,48	39034,03
641,68	38839,48
641,88	38329,53
642,07	38483,13
642,27	38137,02
642,47	37850,31
642,67	37631,18
642,87	37223,63
643,07	36416,73
643,26	36504,79
643,46	35935,46
643,66	35810,53
643,86	35683,56
644,06	34931,95
644,26	34422,01
644,45	34202,88
644,65	33707,27
644,85	33039,63
645,05	32742,67
645,25	32036,12
645,44	31866,14
645,64	31014,19
645,84	30559,54
646,04	29986,11
646,24	29318,47
646,43	29158,73
646,63	28140,89
646,83	27657,57
647,03	27577,70
647,23	26520,95
647,42	26232,18
647,62	25308,55
647,82	24810,89
648,02	24059,29
648,22	23496,10
648,41	23000,49
648,61	22322,61
648,81	21796,28
649,01	20901,32
649,20	20839,88
649,40	19863,00
649,60	19807,70
649,80	18730,47
650,00	18355,69
650,19	17751,54
650,39	17018,37
650,59	16363,02
650,79	16188,94
650,98	15545,88
651,18	15087,14
651,38	14425,64
651,58	14126,64
651,77	13755,96
651,97	13284,92
652,17	13168,19
652,37	12457,54
652,56	12035,66
652,76	11669,08
652,96	11488,85
653,16	10892,90
653,35	10614,37
653,55	10307,18
653,75	10010,22
653,95	9832,05
654,14	9395,83
654,34	9295,48
654,54	8965,76
654,74	8877,69
654,93	8433,29
655,13	8316,55
655,33	7923,34
655,52	7808,65
655,72	7667,34
655,92	7394,96
656,12	7208,60
656,31	6928,03
656,51	6665,89
656,71	6473,38
656,91	6358,69
657,10	6272,68
657,30	6090,41
657,50	5871,28
657,69	5752,49
657,89	5783,21
658,09	5418,68
658,29	5256,89
658,48	5091,00
658,68	5082,81
658,88	5091,00
659,07	4822,72
659,27	4656,83
659,47	4548,29
659,66	4421,31
659,86	4409,03
660,06	4290,24
660,26	4015,82
660,45	4003,53
660,65	3966,67
660,85	3894,99
661,04	3731,15
661,24	3669,71
661,44	3399,38
661,63	3507,92
661,83	3276,50
662,03	3270,36
662,22	3198,68
662,42	3079,89
662,62	3040,98
662,81	2887,39
663,01	2899,67
663,21	2844,38
663,40	2729,69
663,60	2758,36
663,80	2660,06
663,99	2707,16
664,19	2447,07
664,39	2520,80
664,58	2391,78
664,78	2264,80
664,98	2172,64
665,17	2236,13
665,37	2158,31
665,57	2215,65
665,76	2162,40
665,96	1951,46
666,16	1990,38
666,35	1998,57
666,55	1896,17
666,74	1847,02
666,94	1894,12
667,14	1812,20
667,33	1746,67
667,53	1703,66
667,73	1494,77
667,92	1644,27
668,12	1595,12
668,32	1494,77
668,51	1480,43
668,71	1402,61
668,90	1355,51
669,10	1337,07
669,30	1328,88
669,49	1439,47
669,69	1281,78
669,89	1271,54
670,08	1246,96
670,28	1511,15
670,47	1138,42
670,67	1191,67
670,87	1150,71
671,06	1167,09
671,26	1066,74
671,45	925,43
671,65	1091,32
671,85	902,90
672,04	1048,31
672,24	851,70
672,43	972,53
672,63	847,61
672,83	804,60
673,02	818,94
673,22	843,51
673,41	777,98
673,61	734,97
673,81	716,54
674,00	855,80
674,20	704,25
674,39	749,31
674,59	642,81
674,78	593,66
674,98	747,26
675,18	622,33
675,37	687,87
675,57	636,67
675,76	694,01
675,96	620,28
676,15	624,38
676,35	532,22
676,55	651,00
676,74	636,67
676,94	538,37
677,13	552,70
677,33	530,17
677,52	507,65
677,72	491,26
677,91	382,72
678,11	442,11
678,31	415,49
678,50	503,55
678,70	395,01
678,89	487,17
679,09	431,87
679,28	431,87
679,48	407,30
679,67	327,42
679,87	366,34
680,06	374,53
680,26	440,06
680,46	337,66
680,65	345,86
680,85	372,48
681,04	284,42
681,24	335,62
681,43	372,48
681,63	407,30
681,82	274,18
682,02	280,32
682,21	341,76
682,41	292,61
682,60	380,67
682,80	380,67
682,99	384,77
683,19	282,37
683,38	386,82
683,58	325,38
683,77	239,36
683,97	282,37
684,16	376,58
684,36	268,03
684,55	298,75
684,75	243,46
684,94	306,95
685,14	261,89
685,33	192,26
685,53	255,75
685,72	268,03
685,92	218,88
686,11	227,07
686,31	222,98
686,50	352,00
686,70	210,69
686,89	175,88
687,09	225,03
687,28	255,75
687,48	208,64
687,67	255,75
687,87	247,55
688,06	198,40
688,26	233,22
688,45	173,83
688,65	196,35
688,84	214,79
689,03	147,20
689,23	159,49
689,42	329,47
689,62	157,44
689,81	265,99
690,01	194,31
690,20	204,55
690,40	210,69
690,59	210,69
690,79	79,62
690,98	175,88
691,17	130,82
691,37	192,26
691,56	200,45
691,76	243,46
691,95	255,75
692,15	132,87
692,34	196,35
692,54	196,35
692,73	192,26
692,92	143,11
693,12	46,85
693,31	73,48
693,51	177,92
693,70	161,54
693,90	159,49
694,09	116,48
694,28	220,93
694,48	134,92
694,67	184,07
694,87	196,35
695,06	177,92
695,26	141,06
695,45	253,70
695,64	124,68
695,84	194,31
696,03	186,11
696,23	216,83
696,42	165,64
696,61	188,16
696,81	98,05
697,00	63,24
697,20	163,59
697,39	130,82
697,58	44,81
697,78	182,02
697,97	222,98
698,17	126,72
698,36	149,25
698,55	96,00
698,75	263,94
698,94	184,07
699,14	59,14
699,33	73,48
699,52	186,11
699,72	98,05
699,91	159,49
700,10	179,97
700,30	186,11
700,49	159,49
700,69	165,64
700,88	132,87
701,07	126,72
701,27	161,54
701,46	268,03
701,65	159,49
701,85	190,21
702,04	227,07
702,23	120,58
702,43	106,24
702,62	87,81
702,82	136,96
703,01	231,17
703,20	149,25
703,40	122,63
703,59	112,39
703,78	157,44
703,98	202,50
704,17	69,38
704,36	124,68
704,56	210,69
704,75	112,39
704,94	165,64
705,14	241,41
705,33	132,87
705,52	227,07
705,72	112,39
705,91	194,31
706,10	100,10
706,30	216,83
706,49	216,83
706,68	171,78
706,88	259,84
707,07	153,35
707,26	161,54
707,46	259,84
707,65	214,79
707,84	163,59
708,04	46,85
708,23	200,45
708,42	188,16
708,62	114,44
708,81	110,34
709,00	190,21
709,19	155,40
709,39	100,10
709,58	184,07
709,77	124,68
709,97	134,92
710,16	124,68
710,35	229,12
710,55	239,36
710,74	161,54
710,93	141,06
711,12	126,72
711,32	147,20
711,51	218,88
711,70	96,00
711,90	118,53
712,09	87,81
712,28	186,11
712,47	50,95
712,67	155,40
712,86	143,11
713,05	145,16
713,24	122,63
713,44	194,31
713,63	149,25
713,82	81,67
714,02	216,83
714,21	214,79
714,40	59,14
714,59	175,88
714,79	96,00
714,98	134,92
715,17	278,27
715,36	98,05
715,56	132,87
715,75	141,06
715,94	249,60
716,13	161,54
716,33	163,59
716,52	155,40
716,71	194,31
716,90	147,20
717,10	173,83
717,29	85,76
717,48	206,59
717,67	200,45
717,87	200,45
718,06	253,70
718,25	126,72
718,44	128,77
718,63	155,40
718,83	96,00
719,02	55,04
719,21	143,11
719,40	143,11
719,60	63,24
719,79	100,10
719,98	175,88
720,17	139,01
720,36	132,87
720,56	171,78
720,75	179,97
720,94	143,11
721,13	120,58
721,33	157,44
721,52	177,92
721,71	153,35
721,90	157,44
722,09	227,07
722,29	112,39
722,48	42,76
722,67	96,00
722,86	268,03
723,05	268,03
723,24	143,11
723,44	118,53
723,63	124,68
723,82	126,72
724,01	50,95
724,20	202,50
724,40	75,52
724,59	73,48
724,78	87,81
724,97	136,96
725,16	126,72
725,35	233,22
725,55	132,87
725,74	192,26
725,93	239,36
726,12	184,07
726,31	186,11
726,51	186,11
726,70	100,10
726,89	126,72
727,08	186,11
727,27	206,59
727,46	218,88
727,65	214,79
727,85	128,77
728,04	147,20
728,23	102,15
728,42	93,96
728,61	110,34
728,80	124,68
729,00	155,40
729,19	204,55
729,38	235,27
729,57	85,76
729,76	116,48
729,95	243,46
730,14	116,48
730,33	145,16
730,53	116,48
730,72	198,40
730,91	130,82
731,10	257,79
731,29	237,31
731,48	212,74
731,67	147,20
731,86	194,31
732,06	186,11
732,25	157,44
732,44	204,55
732,63	98,05
732,82	268,03
733,01	272,13
733,20	175,88
733,39	196,35
733,59	124,68
733,78	165,64
733,97	204,55
734,16	300,80
734,35	100,10
734,54	263,94
734,73	184,07
734,92	196,35
735,11	198,40
735,30	128,77
735,49	241,41
735,69	270,08
735,88	192,26
736,07	206,59
736,26	186,11
736,45	198,40
736,64	143,11
736,83	274,18
737,02	212,74
737,21	157,44
737,40	100,10
737,59	313,09
737,78	145,16
737,98	149,25
738,17	171,78
738,36	233,22
738,55	233,22
738,74	241,41
738,93	237,31
739,12	100,10
739,31	149,25
739,50	98,05
739,69	233,22
739,88	186,11
740,07	231,17
740,26	208,64
740,45	288,51
740,64	202,50
740,83	173,83
741,02	126,72
741,22	204,55
741,41	245,51
741,60	274,18
741,79	194,31
741,98	190,21
742,17	200,45
742,36	210,69
742,55	153,35
742,74	343,81
742,93	212,74
743,12	149,25
743,31	194,31
743,50	192,26
743,69	200,45
743,88	227,07
744,07	241,41
744,26	325,38
744,45	122,63
744,64	241,41
744,83	214,79
745,02	233,22
745,21	212,74
745,40	106,24
745,59	214,79
745,78	196,35
745,97	225,03
746,16	259,84
746,35	280,32
746,54	83,72
746,73	218,88
746,92	177,92
747,11	104,20
747,30	157,44
747,49	145,16
747,68	186,11
747,87	145,16
748,06	204,55
748,25	239,36
748,44	210,69
748,63	184,07
748,82	147,20
749,01	171,78
749,20	237,31
749,39	167,68
749,58	157,44
749,77	202,50
749,96	161,54
750,15	175,88
750,34	139,01
750,53	237,31
750,72	229,12
750,91	161,54
751,10	317,18
751,29	192,26
751,48	96,00
751,67	93,96
751,86	270,08
752,04	192,26
752,23	300,80
752,42	167,68
752,61	116,48
752,80	206,59
752,99	106,24
753,18	145,16
753,37	261,89
753,56	93,96
753,75	179,97
753,94	130,82
754,13	175,88
754,32	173,83
754,51	91,91
754,70	194,31
754,89	102,15
755,08	128,77
755,27	157,44
755,45	177,92
755,64	151,30
755,83	186,11
756,02	276,23
756,21	214,79
756,40	163,59
756,59	104,20
756,78	155,40
756,97	145,16
757,16	139,01
757,35	163,59
757,54	108,29
757,72	204,55
757,91	110,34
758,10	175,88
758,29	89,86
758,48	196,35
758,67	112,39
758,86	106,24
759,05	106,24
759,24	124,68
759,43	83,72
759,61	50,95
759,80	116,48
759,99	159,49
760,18	128,77
760,37	165,64
760,56	175,88
760,75	270,08
760,94	141,06
761,13	118,53
761,31	186,11
761,50	155,40
761,69	143,11
761,88	102,15
762,07	38,66
762,26	202,50
762,45	120,58
762,64	165,64
762,82	40,71
763,01	192,26
763,20	153,35
763,39	182,02
763,58	96,00
763,77	126,72
763,96	141,06
764,14	136,96
764,33	93,96
764,52	139,01
764,71	218,88
764,90	175,88
765,09	85,76
765,27	225,03
765,46	153,35
765,65	48,90
765,84	143,11
766,03	182,02
766,22	126,72
766,41	114,44
766,59	77,57
766,78	192,26
766,97	139,01
767,16	145,16
767,35	141,06
767,54	268,03
767,72	214,79
767,91	147,20
768,10	96,00
768,29	36,61
768,48	91,91
768,66	190,21
768,85	73,48
769,04	163,59
769,23	184,07
769,42	194,31
769,61	171,78
769,79	210,69
769,98	259,84
770,17	118,53
770,36	202,50
770,55	139,01
770,73	225,03
770,92	141,06
771,11	177,92
771,30	81,67
771,49	204,55
771,67	233,22
771,86	153,35
772,05	136,96
772,24	184,07
772,42	130,82
772,61	268,03
772,80	104,20
772,99	130,82
773,18	114,44
773,36	169,73
773,55	161,54
773,74	139,01
773,93	159,49
774,11	73,48
774,30	253,70
774,49	110,34
774,68	114,44
774,87	233,22
775,05	69,38
775,24	57,09
775,43	274,18
775,62	229,12
775,80	190,21
775,99	255,75
776,18	261,89
776,37	139,01
776,55	218,88
776,74	143,11
776,93	188,16
777,12	118,53
777,30	132,87
777,49	93,96
777,68	145,16
777,87	108,29
778,05	96,00
778,24	159,49
778,43	204,55
778,62	85,76
778,80	139,01
778,99	251,65
779,18	192,26
779,36	208,64
779,55	116,48
779,74	208,64
779,93	186,11
780,11	192,26
780,30	114,44
780,49	216,83
780,68	104,20
780,86	222,98
781,05	179,97
781,24	169,73
781,42	175,88
781,61	182,02
781,80	106,24
781,98	235,27
782,17	229,12
782,36	112,39
782,55	126,72
782,73	161,54
782,92	341,76
783,11	120,58
783,29	108,29
783,48	169,73
783,67	182,02
783,85	163,59
784,04	253,70
784,23	139,01
784,42	167,68
784,60	173,83
784,79	259,84
784,98	192,26
785,16	151,30
785,35	147,20
785,54	208,64
785,72	255,75
785,91	184,07
786,10	116,48
786,28	218,88
786,47	259,84
786,66	167,68
786,84	251,65
787,03	161,54
787,22	149,25
787,40	104,20
787,59	202,50
787,78	157,44
787,96	69,38
788,15	159,49
788,34	155,40
788,52	89,86
788,71	194,31
788,89	143,11
789,08	143,11
789,27	218,88
789,45	247,55
789,64	132,87
789,83	182,02
790,01	136,96
790,20	124,68
790,39	163,59
790,57	83,72
790,76	184,07
790,95	71,43
791,13	210,69
791,32	161,54
791,50	190,21
791,69	167,68
791,88	184,07
792,06	272,13
792,25	182,02
792,43	188,16
792,62	204,55
792,81	98,05
792,99	161,54
793,18	145,16
793,37	222,98
793,55	108,29
793,74	114,44
793,92	169,73
794,11	118,53
794,30	120,58
794,48	136,96
794,67	120,58
794,85	71,43
795,04	102,15
795,23	208,64
795,41	196,35
795,60	120,58
795,78	141,06
795,97	294,66
796,15	212,74
796,34	159,49
796,53	177,92
796,71	134,92
796,90	182,02
797,08	96,00
797,27	163,59
797,46	165,64
797,64	134,92
797,83	165,64
798,01	114,44
798,20	204,55
798,38	141,06
798,57	128,77
798,76	12,04
798,94	36,61
799,13	143,11
799,31	179,97
799,50	102,15
799,68	87,81
799,87	87,81
800,05	122,63
800,24	202,50
800,43	61,19
800,61	204,55
800,80	171,78
800,98	134,92
801,17	167,68
801,35	157,44
801,54	83,72
801,72	145,16
801,91	134,92
802,09	98,05
802,28	55,04
802,46	136,96
802,65	188,16
802,84	259,84
803,02	147,20
803,21	167,68
803,39	153,35
803,58	161,54
803,76	165,64
803,95	225,03
804,13	73,48
804,32	192,26
804,50	218,88
804,69	245,51
804,87	120,58
805,06	167,68
805,24	263,94
805,43	177,92
805,61	139,01
805,80	194,31
805,98	147,20
806,17	132,87
806,35	93,96
806,54	120,58
806,72	136,96
806,91	130,82
807,09	114,44
807,28	175,88
807,46	167,68
807,65	192,26
807,83	120,58
808,02	128,77
808,20	149,25
808,39	122,63
808,57	87,81
808,76	214,79
808,94	196,35
809,13	26,37
809,31	69,38
809,49	136,96
809,68	136,96
809,86	161,54
810,05	196,35
810,23	171,78
810,42	134,92
810,60	36,61
810,79	-12,54
810,97	46,85
811,16	53,00
811,34	249,60
811,53	143,11
811,71	130,82
811,89	210,69
812,08	163,59
812,26	161,54
812,45	186,11
812,63	81,67
812,82	106,24
813,00	110,34
813,19	79,62
813,37	147,20
813,55	132,87
813,74	59,14
813,92	216,83
814,11	32,52
814,29	93,96
814,48	163,59
814,66	175,88
814,84	102,15
815,03	77,57
815,21	231,17
815,40	143,11
815,58	112,39
815,77	118,53
815,95	229,12
816,13	3,85
816,32	208,64
816,50	175,88
816,69	186,11
816,87	98,05
817,05	69,38
817,24	225,03
817,42	40,71
817,61	85,76
817,79	208,64
817,97	91,91
818,16	155,40
818,34	222,98
818,53	7,94
818,71	136,96
818,89	50,95
819,08	147,20
819,26	149,25
819,45	141,06
819,63	91,91
819,81	235,27
820,00	200,45
820,18	124,68
820,36	147,20
820,55	106,24
820,73	75,52
820,92	79,62
821,10	53,00
821,28	73,48
821,47	139,01
821,65	91,91
821,83	333,57
822,02	114,44
822,20	147,20
822,39	69,38
822,57	96,00
822,75	71,43
822,94	83,72
823,12	108,29
823,30	44,81
823,49	202,50
823,67	143,11
823,85	247,55
824,04	134,92
824,22	130,82
824,40	177,92
824,59	116,48
824,77	163,59
824,95	139,01
825,14	132,87
825,32	241,41
825,50	186,11
825,69	59,14
825,87	194,31
826,05	100,10
826,24	139,01
826,42	145,16
826,60	216,83
826,79	83,72
826,97	81,67
827,15	120,58
827,34	110,34
827,52	57,09
827,70	118,53
827,89	65,28
828,07	100,10
828,25	159,49
828,44	204,55
828,62	85,76
828,80	202,50
828,98	163,59
829,17	20,23
829,35	106,24
829,53	44,81
829,72	132,87
829,90	77,57
830,08	116,48
830,27	204,55
830,45	208,64
830,63	192,26
830,81	75,52
831,00	71,43
831,18	81,67
831,36	128,77
831,55	53,00
831,73	50,95
831,91	130,82
832,09	206,59
832,28	208,64
832,46	167,68
832,64	126,72
832,82	77,57
833,01	122,63
833,19	98,05
833,37	53,00
833,55	104,20
833,74	122,63
833,92	85,76
834,10	132,87
834,29	118,53
834,47	100,10
834,65	136,96
834,83	69,38
835,02	100,10
835,20	32,52
835,38	112,39
835,56	87,81
835,75	71,43
835,93	171,78
836,11	79,62
836,29	22,28
836,47	139,01
836,66	83,72
836,84	132,87
837,02	118,53
837,20	210,69
837,39	147,20
837,57	130,82
837,75	96,00
837,93	141,06
838,12	67,33
838,30	87,81
838,48	116,48
838,66	179,97
838,84	175,88
839,03	182,02
839,21	36,61
839,39	71,43
839,57	194,31
839,75	159,49
839,94	98,05
840,12	100,10
840,30	106,24
840,48	186,11
840,66	14,09
840,85	30,47
841,03	159,49
841,21	79,62
841,39	79,62
841,57	102,15
841,76	233,22
841,94	210,69
842,12	87,81
842,30	108,29
842,48	179,97
842,67	124,68
842,85	106,24
843,03	167,68
843,21	145,16
843,39	102,15
843,57	79,62
843,76	71,43
843,94	102,15
844,12	106,24
844,30	-28,92
844,48	126,72
844,66	104,20
844,85	151,30
845,03	167,68
845,21	67,33
845,39	118,53
845,57	141,06
845,75	120,58
845,94	96,00
846,12	100,10
846,30	128,77
846,48	91,91
846,66	151,30
846,84	40,71
847,02	108,29
847,21	141,06
847,39	44,81
847,57	163,59
847,75	110,34
847,93	124,68
848,11	89,86
848,29	104,20
848,48	89,86
848,66	128,77
848,84	171,78
849,02	81,67
849,20	96,00
849,38	153,35
849,56	69,38
849,74	163,59
849,93	243,46
850,11	69,38
850,29	81,67
850,47	55,04
850,65	77,57
850,83	89,86
851,01	75,52
851,19	81,67
851,37	46,85
851,56	108,29
851,74	106,24
851,92	69,38
852,10	69,38
852,28	93,96
852,46	102,15
852,64	222,98
852,82	167,68
853,00	100,10
853,18	98,05
853,37	155,40
853,55	132,87
853,73	96,00
853,91	143,11
854,09	65,28
854,27	83,72
854,45	227,07
854,63	71,43
854,81	63,24
854,99	93,96
855,17	100,10
855,35	155,40
855,53	14,09
855,72	44,81
855,90	69,38
856,08	165,64
856,26	83,72
856,44	243,46
856,62	65,28
856,80	128,77
856,98	85,76
857,16	79,62
857,34	112,39
857,52	102,15
857,70	169,73
857,88	122,63
858,06	116,48
858,24	96,00
858,42	147,20
858,60	177,92
858,78	96,00
858,96	67,33
859,15	67,33
859,33	73,48
859,51	116,48
859,69	85,76
859,87	96,00
860,05	161,54
860,23	182,02
860,41	102,15
860,59	157,44
860,77	196,35
860,95	73,48
861,13	96,00
861,31	32,52
861,49	102,15
861,67	134,92
861,85	182,02
862,03	179,97
862,21	77,57
862,39	139,01
862,57	130,82
862,75	1,80
862,93	132,87
863,11	229,12
863,29	161,54
863,47	116,48
863,65	3,85
863,83	108,29
864,01	28,42
864,19	83,72
864,37	159,49
864,55	79,62
864,73	98,05
864,91	159,49
865,09	175,88
865,27	67,33
865,45	96,00
865,63	179,97
865,81	32,52
865,99	14,09
866,17	55,04
866,35	139,01
866,53	198,40
866,71	87,81
866,89	98,05
867,07	18,18
867,24	79,62
867,42	55,04
867,60	134,92
867,78	149,25
867,96	126,72
868,14	151,30
868,32	225,03
868,50	36,61
868,68	79,62
868,86	48,90
869,04	118,53
869,22	67,33
869,40	18,18
869,58	132,87
869,76	79,62
869,94	-22,78
870,12	-20,73
870,30	108,29
870,48	93,96
870,66	112,39
870,83	38,66
871,01	149,25
871,19	12,04
871,37	63,24
871,55	71,43
871,73	85,76
871,91	190,21
872,09	151,30
872,27	44,81
872,45	77,57
872,63	40,71
872,81	106,24
872,98	112,39
873,16	98,05
873,34	116,48
873,52	48,90
873,70	16,13
873,88	132,87
874,06	16,13
874,24	126,72
874,42	46,85
874,60	53,00
874,78	9,99
874,95	126,72
875,13	120,58
875,31	102,15
875,49	141,06
875,67	134,92
875,85	65,28
876,03	75,52
876,21	208,64
876,39	96,00
876,56	114,44
876,74	22,28
876,92	50,95
877,10	134,92
877,28	163,59
877,46	79,62
877,64	93,96
877,82	98,05
877,99	75,52
878,17	53,00
878,35	100,10
878,53	98,05
878,71	136,96
878,89	100,10
879,07	122,63
879,24	65,28
879,42	175,88
879,60	100,10
879,78	143,11
879,96	120,58
880,14	155,40
880,32	-0,25
880,49	59,14
880,67	161,54
880,85	79,62
881,03	120,58
881,21	118,53
881,39	147,20
881,56	157,44
881,74	48,90
881,92	55,04
882,10	73,48
882,28	124,68
882,46	145,16
882,63	20,23
882,81	73,48
882,99	93,96
883,17	134,92
883,35	134,92
883,52	69,38
883,70	182,02
883,88	67,33
884,06	182,02
884,24	83,72
884,42	241,41
884,59	30,47
884,77	165,64
884,95	141,06
885,13	145,16
885,31	48,90
885,48	-10,49
885,66	87,81
885,84	81,67
886,02	57,09
886,20	118,53
886,37	118,53
886,55	175,88
886,73	102,15
886,91	75,52
887,08	57,09
887,26	63,24
887,44	57,09
887,62	26,37
887,80	173,83
887,97	28,42
888,15	102,15
888,33	132,87
888,51	83,72
888,68	141,06
888,86	65,28
889,04	71,43
889,22	126,72
889,40	65,28
889,57	134,92
889,75	118,53
889,93	169,73
890,11	126,72
890,28	145,16
890,46	61,19
890,64	57,09
890,82	163,59
890,99	132,87
891,17	53,00
891,35	24,33
891,53	104,20
891,70	24,33
891,88	53,00
892,06	71,43
892,24	24,33
892,41	50,95
892,59	141,06
892,77	-45,31
892,94	34,57
893,12	77,57
893,30	20,23
893,48	85,76
893,65	167,68
893,83	124,68
894,01	147,20
894,19	134,92
894,36	245,51
894,54	114,44
894,72	136,96
894,89	20,23
895,07	48,90
895,25	55,04
895,43	-14,59
895,60	46,85
895,78	87,81
895,96	83,72
896,13	175,88
896,31	71,43
896,49	79,62
896,66	32,52
896,84	120,58
897,02	96,00
897,20	65,28
897,37	44,81
897,55	50,95
897,73	124,68
897,90	169,73
898,08	124,68
898,26	106,24
898,43	73,48
898,61	55,04
898,79	112,39
898,96	46,85
899,14	50,95
899,32	108,29
899,49	48,90
899,67	155,40
899,85	108,29
900,02	149,25
900,20	114,44
900,38	73,48
900,55	192,26
900,73	182,02
900,91	5,89
901,08	71,43
901,26	91,91
901,44	118,53
901,61	118,53
901,79	59,14
901,97	87,81
902,14	106,24
902,32	59,14
902,50	61,19
902,67	44,81
902,85	83,72
903,02	108,29
903,20	65,28
903,38	57,09
903,55	-14,59
903,73	112,39
903,91	36,61
904,08	120,58
904,26	26,37
904,44	216,83
904,61	-8,44
904,79	34,57
904,96	71,43
905,14	61,19
905,32	110,34
905,49	61,19
905,67	-10,49
905,84	-33,02
906,02	126,72
906,20	-0,25
906,37	182,02
906,55	108,29
906,73	75,52
906,90	132,87
907,08	93,96
907,25	79,62
907,43	124,68
907,61	-24,83
907,78	40,71
907,96	28,42
908,13	48,90
908,31	157,44
908,48	63,24
908,66	22,28
908,84	106,24
909,01	175,88
909,19	147,20
909,36	55,04
909,54	69,38
909,72	155,40
909,89	16,13
910,07	40,71
910,24	106,24
910,42	104,20
910,59	71,43
910,77	36,61
910,95	18,18
911,12	108,29
911,30	85,76
911,47	104,20
911,65	136,96
911,82	-8,44
912,00	114,44
912,17	55,04
912,35	71,43
912,53	112,39
912,70	136,96
912,88	40,71
913,05	116,48
913,23	53,00
913,40	136,96
913,58	48,90
913,75	147,20
913,93	-12,54
914,10	7,94
914,28	-24,83
914,46	1,80
914,63	53,00
914,81	167,68
914,98	7,94
915,16	110,34
915,33	-0,25
915,51	79,62
915,68	77,57
915,86	116,48
916,03	20,23
916,21	-41,21
916,38	65,28
916,56	73,48
916,73	65,28
916,91	65,28
917,08	-10,49
917,26	147,20
917,43	69,38
917,61	32,52
917,78	112,39
917,96	32,52
918,13	30,47
918,31	77,57
918,48	-59,64
918,66	18,18
918,83	128,77
919,01	57,09
919,18	122,63
919,36	36,61
919,53	79,62
919,71	188,16
919,88	61,19
920,06	36,61
920,23	57,09
920,41	85,76
920,58	63,24
920,76	67,33
920,93	128,77
921,11	79,62
921,28	48,90
921,45	194,31
921,63	102,15
921,80	153,35
921,98	96,00
922,15	65,28
922,33	38,66
922,50	71,43
922,68	73,48
922,85	3,85
923,03	7,94
923,20	98,05
923,38	130,82
923,55	102,15
923,72	46,85
923,90	212,74
924,07	36,61
924,25	44,81
924,42	165,64
924,60	116,48
924,77	63,24
924,95	139,01
925,12	124,68
925,29	196,35
925,47	130,82
925,64	-20,73
925,82	53,00
925,99	-18,68
926,17	104,20
926,34	46,85
926,51	130,82
926,69	71,43
926,86	102,15
927,04	98,05
927,21	42,76
927,38	104,20
927,56	50,95
927,73	93,96
927,91	55,04
928,08	225,03
928,25	63,24
928,43	38,66
928,60	38,66
928,78	126,72
928,95	89,86
929,12	134,92
929,30	151,30
929,47	48,90
929,65	34,57
929,82	36,61
929,99	136,96
930,17	-10,49
930,34	63,24
930,52	106,24
930,69	24,33
930,86	30,47
931,04	44,81
931,21	30,47
931,38	63,24
931,56	91,91
931,73	93,96
931,91	114,44
932,08	83,72
932,25	157,44
932,43	48,90
932,60	53,00
932,77	83,72
932,95	7,94
933,12	53,00
933,29	100,10
933,47	32,52
933,64	34,57
933,82	93,96
933,99	75,52
934,16	81,67
934,34	91,91
934,51	7,94
934,68	122,63
934,86	147,20
935,03	-0,25
935,20	61,19
935,38	-73,98
935,55	57,09
935,72	139,01
935,90	69,38
936,07	34,57
936,24	40,71
936,42	134,92
936,59	93,96
936,76	102,15
936,94	20,23
937,11	100,10
937,28	61,19
937,46	85,76
937,63	104,20
937,80	122,63
937,97	126,72
938,15	114,44
938,32	59,14
938,49	196,35
938,67	32,52
938,84	79,62
939,01	38,66
939,19	12,04
939,36	100,10
939,53	79,62
939,70	40,71
939,88	96,00
940,05	122,63
940,22	120,58
940,40	104,20
940,57	145,16
940,74	-18,68
940,92	124,68
941,09	106,24
941,26	-22,78
941,43	188,16
941,61	128,77
941,78	16,13
941,95	143,11
942,12	16,13
942,30	50,95
942,47	136,96
942,64	20,23
942,82	161,54
942,99	46,85
943,16	-22,78
943,33	132,87
943,51	7,94
943,68	167,68
943,85	5,89
944,02	87,81
944,20	110,34
944,37	16,13
944,54	59,14
944,71	87,81
944,89	73,48
945,06	67,33
945,23	91,91
945,40	63,24
945,58	87,81
945,75	-8,44
945,92	225,03
946,09	132,87
946,27	102,15
946,44	-12,54
946,61	79,62
946,78	7,94
946,95	53,00
947,13	18,18
947,30	55,04
947,47	14,09
947,64	12,04
947,82	20,23
947,99	61,19
948,16	102,15
948,33	26,37
948,50	32,52
948,68	128,77
948,85	79,62
949,02	153,35
949,19	9,99
949,36	98,05
949,54	53,00
949,71	120,58
949,88	18,18
950,05	-14,59
950,22	38,66
950,40	108,29
950,57	24,33
950,74	130,82
950,91	63,24
951,08	-4,35
951,26	20,23
951,43	30,47
951,60	22,28
951,77	120,58
951,94	206,59
952,11	102,15
952,29	177,92
952,46	-22,78
952,63	157,44
952,80	46,85
952,97	116,48
953,15	89,86
953,32	91,91
953,49	-41,21
953,66	42,76
953,83	67,33
954,00	44,81
954,17	110,34
954,35	198,40
954,52	7,94
954,69	134,92
954,86	112,39
955,03	77,57
955,20	93,96
955,38	71,43
955,55	89,86
955,72	81,67
955,89	-12,54
956,06	106,24
956,23	48,90
956,40	71,43
956,58	-35,07
956,75	9,99
956,92	-6,39
957,09	-4,35
957,26	40,71
957,43	-18,68
957,60	36,61
957,77	50,95
957,95	89,86
958,12	71,43
958,29	46,85
958,46	110,34
958,63	48,90
958,80	77,57
958,97	85,76
959,14	96,00
959,31	26,37
959,49	120,58
959,66	5,89
959,83	-47,35
960,00	-14,59
960,17	102,15
960,34	98,05
960,51	1,80
960,68	100,10
960,85	143,11
961,02	75,52
961,20	159,49
961,37	98,05
961,54	126,72
961,71	53,00
961,88	120,58
962,05	53,00
962,22	85,76
962,39	83,72
962,56	93,96
962,73	-8,44
962,90	26,37
963,07	89,86
963,24	143,11
963,42	83,72
963,59	81,67
963,76	61,19
963,93	227,07
964,10	67,33
964,27	61,19
964,44	136,96
964,61	91,91
964,78	71,43
964,95	61,19
965,12	38,66
965,29	132,87
965,46	-16,63
965,63	122,63
965,80	-39,16
965,97	44,81
966,14	55,04
966,31	61,19
966,48	126,72
966,66	128,77
966,83	5,89
967,00	151,30
967,17	79,62
967,34	20,23
967,51	163,59
967,68	130,82
967,85	-12,54
968,02	106,24
968,19	34,57
968,36	120,58
968,53	69,38
968,70	69,38
968,87	108,29
969,04	63,24
969,21	36,61
969,38	206,59
969,55	16,13
969,72	98,05
969,89	96,00
970,06	163,59
970,23	50,95
970,40	50,95
970,57	48,90
970,74	100,10
970,91	46,85
971,08	-26,87
971,25	65,28
971,42	114,44
971,59	65,28
971,76	81,67
971,93	89,86
972,10	100,10
972,27	40,71
972,44	53,00
972,61	42,76
972,78	79,62
972,95	110,34
973,12	141,06
973,29	20,23
973,46	40,71
973,63	130,82
973,80	155,40
973,97	30,47
974,14	108,29
974,30	24,33
974,47	128,77
974,64	93,96
974,81	-6,39
974,98	155,40
975,15	16,13
975,32	155,40
975,49	22,28
975,66	46,85
975,83	208,64
976,00	136,96
976,17	69,38
976,34	73,48
976,51	87,81
976,68	38,66
976,85	73,48
977,02	55,04
977,19	71,43
977,36	-49,40
977,52	110,34
977,69	157,44
977,86	50,95
978,03	14,09
978,20	139,01
978,37	53,00
978,54	118,53
978,71	89,86
978,88	175,88
979,05	-43,26
979,22	32,52
979,39	71,43
979,56	106,24
979,72	-59,64
979,89	161,54
980,06	145,16
980,23	169,73
980,40	118,53
980,57	40,71
980,74	32,52
980,91	12,04
981,08	16,13
981,25	44,81
981,41	98,05
981,58	3,85
981,75	3,85
981,92	73,48
982,09	98,05
982,26	18,18
982,43	-18,68
982,60	161,54
982,77	30,47
982,93	100,10
983,10	20,23
983,27	20,23
983,44	83,72
983,61	71,43
983,78	53,00
983,95	-4,35
984,11	63,24
984,28	184,07
984,45	34,57
984,62	3,85
984,79	59,14
984,96	89,86
985,13	63,24
985,30	102,15
985,46	96,00
985,63	91,91
985,80	126,72
985,97	91,91
986,14	18,18
986,31	100,10
986,47	104,20
986,64	75,52
986,81	143,11
986,98	7,94
987,15	81,67
987,32	55,04
987,48	57,09
987,65	73,48
987,82	18,18
987,99	134,92
988,16	421,63
988,33	143,11
988,49	93,96
988,66	116,48
988,83	42,76
989,00	89,86
989,17	22,28
989,34	34,57
989,50	44,81
989,67	55,04
989,84	-47,35
990,01	93,96
990,18	75,52
990,34	98,05
990,51	14,09
990,68	79,62
990,85	22,28
991,02	59,14
991,18	-4,35
991,35	71,43
991,52	106,24
991,69	12,04
991,86	83,72
992,02	-35,07
992,19	44,81
992,36	55,04
992,53	98,05
992,69	57,09
992,86	73,48
993,03	126,72
993,20	-51,45
993,37	77,57
993,53	102,15
993,70	75,52
993,87	28,42
994,04	77,57
994,20	7,94
994,37	65,28
994,54	7,94
994,71	89,86
994,87	114,44
995,04	110,34
995,21	-2,30
995,38	36,61
995,55	-8,44
995,71	28,42
995,88	79,62
996,05	120,58
996,22	26,37
996,38	108,29
996,55	1,80
996,72	5,89
996,88	198,40
997,05	1095,41
997,22	53,00
997,39	48,90
997,55	48,90
997,72	24,33
997,89	-18,68
998,06	50,95
998,22	122,63
998,39	71,43
998,56	12,04
998,73	-0,25
998,89	26,37
999,06	44,81
999,23	93,96
999,39	114,44
999,56	108,29
999,73	75,52
999,90	93,96
1000,06	175,88
1000,23	85,76
1000,40	110,34
1000,56	40,71
1000,73	48,90
1000,90	53,00
1001,06	98,05
1001,23	57,09
1001,40	63,24
1001,57	38,66
1001,73	71,43
1001,90	50,95
1002,07	44,81
1002,23	89,86
1002,40	28,42
1002,57	14,09
1002,73	38,66
1002,90	16,13
1003,07	153,35
1003,23	26,37
1003,40	102,15
1003,57	-6,39
1003,73	18,18
1003,90	108,29
1004,07	77,57
1004,23	-18,68
1004,40	104,20
1004,57	59,14
1004,73	-20,73
1004,90	83,72
1005,07	61,19
1005,23	96,00
1005,40	-33,02
1005,57	3,85
1005,73	112,39
1005,90	5,89
1006,07	69,38
1006,23	20,23
1006,40	30,47
1006,57	67,33
1006,73	63,24
1006,90	-10,49
1007,06	110,34
1007,23	7,94
1007,40	61,19
1007,56	34,57
1007,73	69,38
1007,90	57,09
1008,06	44,81
1008,23	42,76
1008,40	130,82
1008,56	22,28
1008,73	63,24
1008,89	77,57
1009,06	134,92
1009,23	57,09
1009,39	61,19
1009,56	57,09
1009,72	85,76
1009,89	26,37
1010,06	59,14
1010,22	36,61
1010,39	59,14
1010,55	85,76
1010,72	124,68
1010,89	9,99
1011,05	63,24
1011,22	14,09
1011,38	159,49
1011,55	73,48
1011,72	46,85
1011,88	104,20
1012,05	18,18
1012,21	87,81
1012,38	55,04
1012,55	112,39
1012,71	-10,49
1012,88	40,71
1013,04	96,00
1013,21	30,47
1013,37	24,33
1013,54	5,89
1013,71	116,48
1013,87	53,00
1014,04	96,00
1014,20	126,72
1014,37	57,09
1014,53	71,43
1014,70	57,09
1014,87	61,19
1015,03	175,88
1015,20	7,94
1015,36	96,00
1015,53	-18,68
1015,69	118,53
1015,86	-10,49
1016,02	63,24
1016,19	96,00
1016,36	61,19
1016,52	7,94
1016,69	104,20
1016,85	102,15
1017,02	85,76
1017,18	-26,87
1017,35	28,42
1017,51	93,96
1017,68	149,25
1017,84	75,52
1018,01	5,89
1018,17	122,63
1018,34	194,31
1018,50	32,52
1018,67	3,85
1018,84	100,10
1019,00	32,52
1019,17	136,96
1019,33	20,23
1019,50	73,48
1019,66	83,72
1019,83	3,85
1019,99	91,91
1020,16	102,15
1020,32	-2,30
1020,49	96,00
1020,65	130,82
1020,82	120,58
1020,98	89,86
1021,15	112,39
1021,31	159,49
1021,48	69,38
1021,64	63,24
1021,81	126,72
1021,97	50,95
1022,14	42,76
1022,30	67,33
1022,47	96,00
1022,63	40,71
1022,79	75,52
1022,96	38,66
1023,12	65,28
1023,29	118,53
1023,45	179,97
1023,62	73,48
1023,78	50,95
1023,95	28,42
1024,11	12,04
1024,28	69,38
1024,44	83,72
1024,61	48,90
1024,77	48,90
1024,94	114,44
1025,10	75,52
1025,26	12,04
1025,43	110,34
1025,59	36,61
1025,76	-14,59
1025,92	30,47
1026,09	81,67
1026,25	132,87
1026,42	-30,97
1026,58	12,04
1026,74	171,78
1026,91	108,29
1027,07	59,14
1027,24	126,72
1027,40	28,42
1027,57	118,53
1027,73	40,71
1027,90	122,63
1028,06	46,85
1028,22	57,09
1028,39	16,13
1028,55	69,38
1028,72	136,96
1028,88	186,11
1029,04	-2,30
1029,21	110,34
1029,37	12,04
1029,54	167,68
1029,70	40,71
1029,87	-53,50
1030,03	57,09
1030,19	136,96
1030,36	89,86
1030,52	7,94
1030,69	-33,02
1030,85	-24,83
1031,01	108,29
1031,18	73,48
1031,34	87,81
1031,50	32,52
1031,67	16,13
1031,83	114,44
1032,00	98,05
1032,16	155,40
1032,32	16,13
1032,49	114,44
1032,65	71,43
1032,82	116,48
1032,98	38,66
1033,14	83,72
1033,31	75,52
1033,47	85,76
1033,63	24,33
1033,80	65,28
1033,96	5,89
1034,13	100,10
1034,29	106,24
1034,45	36,61
1034,62	-4,35
1034,78	124,68
1034,94	32,52
1035,11	155,40
1035,27	7,94
1035,43	102,15
1035,60	75,52
1035,76	57,09
1035,92	81,67
1036,09	48,90
1036,25	124,68
1036,41	128,77
1036,58	114,44
1036,74	134,92
1036,90	63,24
1037,07	-14,59
1037,23	100,10
1037,39	175,88
1037,56	46,85
1037,72	69,38
1037,88	165,64
1038,05	42,76
1038,21	132,87
1038,37	71,43
1038,54	24,33
1038,70	126,72
1038,86	112,39
1039,03	106,24
1039,19	40,71
1039,35	79,62
1039,52	57,09
1039,68	67,33
1039,84	-0,25
1040,00	87,81
1040,17	46,85
1040,33	87,81
1040,49	22,28
1040,66	112,39
1040,82	98,05
1040,98	141,06
1041,15	50,95
1041,31	75,52
1041,47	50,95
1041,63	-6,39
1041,80	89,86
1041,96	139,01
1042,12	-16,63
1042,29	96,00
1042,45	75,52
1042,61	-6,39
1042,77	69,38
1042,94	141,06
1043,10	247,55
1043,26	16,13
1043,42	143,11
1043,59	50,95
1043,75	73,48
1043,91	59,14
1044,07	89,86
1044,24	65,28
1044,40	9,99
>>>>>End Processed Spectral Data<<<<<
