SpectraSuite Data File
++++++++++++++++++++++++++++++++++++
Date: Mon Nov 09 11:56:08 BRST 2020
User: Administrador
Dark Spectrum Present: No
Reference Spectrum Present: No
Number of Sampled Component Spectra: 1
Spectrometers: USB4F02573
Integration Time (usec): 100000 (USB4F02573)
Spectra Averaged: 1 (USB4F02573)
Boxcar Smoothing: 0 (USB4F02573)
Correct for Electrical Dark: Yes (USB4F02573)
Strobe/Lamp Enabled: No (USB4F02573)
Correct for Detector Non-linearity: No (USB4F02573)
Correct for Stray Light: No (USB4F02573)
Number of Pixels in Processed Spectrum: 3648
>>>>>Begin Processed Spectral Data<<<<<
345,22	-185,42
345,44	-185,42
345,66	-185,42
345,88	-109,65
346,10	-166,99
346,32	99,25
346,54	113,58
346,75	97,20
346,97	56,24
347,19	111,53
347,41	121,77
347,63	7,09
347,85	50,10
348,07	58,29
348,29	195,50
348,51	74,67
348,73	119,73
348,95	97,20
349,16	1184,67
349,38	1835,92
349,60	1799,06
349,82	1749,91
350,04	1702,81
350,26	1721,24
350,48	1866,64
350,70	1885,08
350,92	1889,17
351,14	1809,30
351,35	1766,29
351,57	1983,38
351,79	1876,88
352,01	1729,43
352,23	1713,05
352,45	1794,96
352,67	1774,49
352,89	1815,44
353,10	1756,05
353,32	1721,24
353,54	1778,58
353,76	1797,01
353,98	1889,17
354,20	1938,32
354,42	1817,49
354,64	1751,96
354,85	1891,22
355,07	1749,91
355,29	1862,55
355,51	1850,26
355,73	1725,33
355,95	1686,42
356,17	1790,87
356,38	1870,74
356,60	1844,12
356,82	1819,54
357,04	1688,47
357,26	1745,81
357,48	1815,44
357,69	1735,57
357,91	1741,72
358,13	1923,99
358,35	2020,24
358,57	1907,60
358,79	1883,03
359,01	1885,08
359,22	1946,51
359,44	1954,71
359,66	1803,16
359,88	1782,68
360,10	1858,45
360,32	1729,43
360,53	1809,30
360,75	1801,11
360,97	1844,12
361,19	1891,22
361,41	1919,89
361,62	1670,04
361,84	1766,29
362,06	1772,44
362,28	1713,05
362,50	1891,22
362,72	1825,68
362,93	1745,81
363,15	1725,33
363,37	1846,16
363,59	1874,84
363,81	1975,19
364,02	1870,74
364,24	1717,14
364,46	1878,93
364,68	1739,67
364,90	2085,78
365,11	1989,52
365,33	2036,63
365,55	1962,90
365,77	1850,26
365,99	1930,13
366,20	2026,39
366,42	1844,12
366,64	1702,81
366,86	1827,73
367,07	1811,35
367,29	1792,92
367,51	1876,88
367,73	1825,68
367,95	1807,25
368,16	1813,40
368,38	1930,13
368,60	1874,84
368,82	1893,27
369,03	1805,20
369,25	1792,92
369,47	1823,64
369,69	1780,63
369,91	1901,46
370,12	1723,29
370,34	1745,81
370,56	1790,87
370,78	1850,26
370,99	1901,46
371,21	1733,53
371,43	1637,27
371,65	1751,96
371,86	1848,21
372,08	1858,45
372,30	1848,21
372,52	1803,16
372,73	1618,84
372,95	1698,71
373,17	1631,13
373,39	1694,61
373,60	1764,25
373,82	1672,09
374,04	1670,04
374,26	1833,88
374,47	1794,96
374,69	1706,90
374,91	1891,22
375,12	1784,73
375,34	1751,96
375,56	1688,47
375,78	1690,52
375,99	1657,75
376,21	1887,12
376,43	1825,68
376,65	1887,12
376,86	1741,72
377,08	1751,96
377,30	1751,96
377,51	1762,20
377,73	1760,15
377,95	1667,99
378,17	1676,18
378,38	1831,83
378,60	1940,37
378,82	1874,84
379,03	1932,18
379,25	1917,84
379,47	1883,03
379,68	1723,29
379,90	1627,03
380,12	1840,02
380,34	1815,44
380,55	1782,68
380,77	1805,20
380,99	1776,53
381,20	1842,07
381,42	1842,07
381,64	1774,49
381,85	1829,78
382,07	1840,02
382,29	1891,22
382,50	1835,92
382,72	1895,32
382,94	1721,24
383,15	1835,92
383,37	1688,47
383,59	1651,61
383,80	1747,86
384,02	1837,97
384,24	1784,73
384,45	1797,01
384,67	1729,43
384,89	1766,29
385,10	1850,26
385,32	1878,93
385,54	1887,12
385,75	1840,02
385,97	1966,99
386,19	1952,66
386,40	1975,19
386,62	1819,54
386,84	1831,83
387,05	1837,97
387,27	1874,84
387,49	1670,04
387,70	1788,82
387,92	1909,65
388,14	1762,20
388,35	1784,73
388,57	1803,16
388,79	1891,22
389,00	1921,94
389,22	1940,37
389,43	1919,89
389,65	1880,98
389,87	1770,39
390,08	1743,77
390,30	1948,56
390,52	1921,94
390,73	1835,92
390,95	1835,92
391,17	1926,03
391,38	1817,49
391,60	1964,95
391,81	2108,30
392,03	1887,12
392,25	1817,49
392,46	1751,96
392,68	2016,15
392,89	1874,84
393,11	1958,80
393,33	2050,96
393,54	2046,87
393,76	2106,26
393,98	2036,63
394,19	2018,19
394,41	2091,92
394,62	1885,08
394,84	1950,61
395,06	1983,38
395,27	2147,22
395,49	2003,86
395,70	2179,98
395,92	1985,43
396,13	1948,56
396,35	2061,20
396,57	1987,47
396,78	2067,34
397,00	2087,82
397,21	2212,75
397,43	1958,80
397,65	2198,41
397,86	2218,89
398,08	2102,16
398,29	2204,56
398,51	1981,33
398,72	2216,85
398,94	2241,42
399,16	2220,94
399,37	2165,65
399,59	2263,95
399,80	2274,19
400,02	2028,43
400,23	2263,95
400,45	2141,07
400,67	2198,41
400,88	2186,13
401,10	2220,94
401,31	2175,89
401,53	2255,76
401,74	2306,96
401,96	2270,09
402,17	2159,50
402,39	2272,14
402,61	2311,05
402,82	2366,35
403,04	2366,35
403,25	2319,24
403,47	2442,12
403,68	2239,37
403,90	2284,43
404,11	2263,95
404,33	2274,19
404,54	2548,62
404,76	2364,30
404,97	2339,72
405,19	2493,32
405,41	2442,12
405,62	2521,99
405,84	2231,18
406,05	2489,23
406,27	2450,31
406,48	2489,23
406,70	2362,25
406,91	2440,08
407,13	2542,47
407,34	2423,69
407,56	2573,19
407,77	2501,51
407,99	2528,14
408,20	2677,64
408,42	2472,84
408,63	2556,81
408,85	2579,34
409,06	2519,95
409,28	2663,30
409,49	2562,95
409,71	2593,67
409,92	2577,29
410,14	2575,24
410,35	2923,40
410,57	2622,34
410,78	2651,02
411,00	2677,64
411,21	2712,45
411,43	2794,37
411,64	2882,44
411,86	2618,25
412,07	2732,93
412,29	2872,20
412,50	2777,99
412,72	2958,21
412,93	3079,04
413,15	2890,63
413,36	2874,24
413,58	2943,88
413,79	3048,32
414,01	3001,22
414,22	2861,96
414,43	3089,28
414,65	3107,71
414,86	2993,03
415,08	2958,21
415,29	3093,38
415,51	3144,58
415,72	3060,61
415,94	3103,62
416,15	3142,53
416,37	3124,10
416,58	3353,47
416,80	3257,21
417,01	3246,97
417,22	3390,33
417,44	3378,04
417,65	3191,68
417,87	3216,26
418,08	3488,64
418,30	3285,89
418,51	3249,02
418,73	3316,61
418,94	3240,83
419,15	3363,71
419,37	3593,08
419,58	3353,47
419,80	3500,92
420,01	3599,23
420,23	3603,32
420,44	3935,09
420,65	3744,63
420,87	3621,75
421,08	3699,58
421,30	3836,79
421,51	3695,48
421,73	3842,93
421,94	3779,45
422,15	3828,60
422,37	3945,33
422,58	3847,03
422,80	3949,43
423,01	4135,79
423,22	4174,70
423,44	4066,16
423,65	4422,51
423,87	4199,28
424,08	4258,67
424,29	4438,89
424,51	4326,25
424,72	4508,52
424,94	4342,64
425,15	4559,72
425,36	4672,36
425,58	4625,26
425,79	4680,55
426,01	4676,46
426,22	4651,88
426,43	5022,56
426,65	5079,91
426,86	5231,46
427,08	5036,90
427,29	5153,63
427,50	5280,61
427,72	5237,60
427,93	5327,71
428,14	5340,00
428,36	5550,94
428,57	5602,14
428,79	5817,18
429,00	5794,65
429,21	5757,78
429,43	6101,84
429,64	6284,11
429,85	5991,25
430,07	6333,26
430,28	6155,09
430,49	6368,08
430,71	6472,53
430,92	6703,95
431,14	6669,13
431,35	6966,09
431,56	6986,57
431,78	7125,83
431,99	7162,69
432,20	7564,09
432,42	7441,21
432,63	7879,48
432,84	7734,07
433,06	7349,06
433,27	7600,96
433,48	8129,33
433,70	8031,03
433,91	8203,06
434,12	8149,81
434,34	8395,57
434,55	8899,37
434,76	8876,84
434,98	8846,12
435,19	9028,39
435,40	9257,76
435,62	9173,80
435,83	9583,39
436,04	9597,73
436,26	9745,18
436,47	9583,39
436,68	9399,07
436,90	10160,92
437,11	10359,57
437,32	10402,58
437,54	11084,55
437,75	10732,30
437,96	10828,56
438,17	11031,30
438,39	11156,23
438,60	11168,52
438,81	11356,93
439,03	12520,18
439,24	12632,82
439,45	12774,13
439,67	12540,66
439,88	12364,53
440,09	12442,35
440,30	12948,20
440,52	12761,84
440,73	13525,73
440,94	13542,11
441,16	13724,38
441,37	13769,44
441,58	14303,96
441,80	14932,68
442,01	14875,34
442,22	15389,38
442,43	15166,15
442,65	15827,65
442,86	15117,00
443,07	15841,98
443,28	15762,11
443,50	16491,19
443,71	17064,62
443,92	16399,03
444,14	16016,06
444,35	17644,20
444,56	17371,82
444,77	18150,04
444,99	17498,79
445,20	18170,52
445,41	18403,99
445,62	19006,09
445,84	19301,00
446,05	19804,80
446,26	20363,90
446,47	18864,78
446,69	19309,19
446,90	20931,18
447,11	20531,83
447,32	19686,02
447,54	20341,37
447,75	20890,23
447,96	20404,86
448,17	20617,85
448,39	21926,50
448,60	21011,06
448,81	22143,58
449,02	21525,10
449,23	22137,44
449,45	23431,75
449,66	22501,98
449,87	22714,97
450,08	23501,39
450,30	23423,56
450,51	24316,48
450,72	23986,75
450,93	24887,86
451,15	24754,74
451,36	24011,33
451,57	24232,51
451,78	23855,68
451,99	25610,79
452,21	26153,51
452,42	25133,62
452,63	25010,74
452,84	24861,24
453,05	25719,34
453,27	25807,40
453,48	26538,52
453,69	25733,67
453,90	26544,67
454,11	26257,95
454,33	26139,17
454,54	26880,53
454,75	27755,02
454,96	27746,82
455,17	26944,02
455,39	26954,26
455,60	27660,81
455,81	28408,32
456,02	27099,67
456,23	26069,54
456,45	27707,91
456,66	26137,12
456,87	26092,07
457,08	28107,27
457,29	27560,46
457,50	26802,71
457,72	26780,18
457,93	26333,73
458,14	27978,25
458,35	27484,68
458,56	27193,87
458,77	26561,05
458,99	27071,00
459,20	25661,99
459,41	26534,43
459,62	25195,06
459,83	25889,32
460,04	26333,73
460,26	26245,66
460,47	25385,52
460,68	24834,61
460,89	24764,98
461,10	24040,00
461,31	24998,45
461,52	24289,85
461,74	23976,51
461,95	23935,56
462,16	24445,50
462,37	24273,47
462,58	23413,32
462,79	23263,82
463,00	23382,60
463,22	23700,04
463,43	22778,45
463,64	22377,05
463,85	22604,38
464,06	23108,18
464,27	21717,60
464,48	21871,20
464,70	21777,00
464,91	21566,06
465,12	22125,15
465,33	22049,38
465,54	20765,30
465,75	21064,30
465,96	21402,22
466,17	20507,26
466,38	20488,82
466,60	20099,71
466,81	19667,59
467,02	20468,34
467,23	19360,39
467,44	18750,10
467,65	18862,74
467,86	18623,12
468,07	19565,19
468,28	19098,25
468,50	18049,69
468,71	18410,14
468,92	18256,54
469,13	17842,85
469,34	17410,73
469,55	17666,72
469,76	17914,53
469,97	17199,79
470,18	17586,85
470,39	17449,64
470,60	17066,67
470,82	16542,39
471,03	16534,20
471,24	16999,08
471,45	16276,15
471,66	16687,79
471,87	16257,72
472,08	16048,83
472,29	15602,37
472,50	15704,77
472,71	15542,98
472,92	15399,62
473,13	15409,86
473,34	14920,40
473,55	14996,17
473,77	15205,06
473,98	14781,13
474,19	14727,89
474,40	14426,84
474,61	14263,00
474,82	13626,08
475,03	13716,19
475,24	13343,46
475,45	13611,74
475,66	13730,53
475,87	13507,30
476,08	13591,26
476,29	13013,74
476,50	12991,21
476,71	13437,67
476,92	12714,73
477,13	12915,44
477,34	12557,04
477,55	12511,99
477,76	12518,13
477,97	12286,71
478,18	12155,64
478,40	12190,45
478,61	12227,32
478,82	12116,73
479,03	11719,42
479,24	11791,10
479,45	12036,86
479,66	11379,46
479,87	11305,73
480,08	11074,31
480,29	11348,74
480,50	11189,00
480,71	11285,25
480,92	11092,74
481,13	10806,03
481,34	10857,23
481,55	10435,35
481,76	10779,40
481,97	10464,02
482,18	10152,73
482,39	10165,01
482,60	10081,05
482,81	10089,24
483,02	9859,87
483,23	9495,33
483,44	9569,05
483,65	9335,59
483,86	9388,83
484,07	9528,09
484,28	9466,66
484,49	9018,15
484,70	8995,62
484,91	8928,04
485,12	8835,88
485,33	8618,80
485,54	8457,01
485,75	8241,97
485,96	8356,66
486,17	8166,20
486,38	8055,61
486,59	8332,08
486,80	8108,85
487,01	7932,73
487,21	8020,79
487,42	7557,95
487,63	7904,06
487,84	7453,50
488,05	7545,66
488,26	7684,92
488,47	7457,60
488,68	7314,24
488,89	7600,96
489,10	7381,82
489,31	7252,80
489,52	7045,96
489,73	7052,10
489,94	7193,41
490,15	7097,16
490,36	6992,71
490,57	6843,21
490,78	6771,53
490,99	6744,91
491,20	6665,03
491,41	6845,26
491,61	6658,89
491,82	6398,80
492,03	6183,76
492,24	6337,36
492,45	6163,28
492,66	6173,52
492,87	6159,19
493,08	5966,68
493,29	5827,42
493,50	6052,69
493,71	5804,89
493,92	5698,39
494,13	5688,15
494,34	5528,41
494,54	5595,99
494,75	5487,45
494,96	5671,77
495,17	5423,97
495,38	5292,90
495,59	5391,20
495,80	5229,41
496,01	5213,02
496,22	5036,90
496,43	4991,84
496,64	5141,35
496,84	5045,09
497,05	4954,98
497,26	4971,36
497,47	5073,76
497,68	4885,35
497,89	4832,10
498,10	5057,38
498,31	4920,17
498,52	4809,57
498,72	4741,99
498,93	4641,64
499,14	4543,34
499,35	4576,11
499,56	4451,18
499,77	4438,89
499,98	4565,87
500,19	4445,04
500,40	4410,22
500,60	4184,94
500,81	4451,18
501,02	4275,06
501,23	4324,21
501,44	4533,10
501,65	4232,05
501,86	4236,14
502,06	4133,75
502,27	4141,94
502,48	4170,61
502,69	4100,98
502,90	4094,83
503,11	4045,68
503,32	4057,97
503,53	3928,95
503,73	3826,55
503,94	3928,95
504,15	3996,53
504,36	3703,67
504,57	3851,13
504,78	3687,29
504,98	3808,12
505,19	3664,76
505,40	3640,18
505,61	3597,18
505,82	3533,69
506,03	3687,29
506,23	3505,02
506,44	3644,28
506,65	3550,07
506,86	3535,74
507,07	3435,39
507,28	3447,68
507,48	3353,47
507,69	3392,38
507,90	3326,85
508,11	3294,08
508,32	3410,81
508,53	3310,46
508,73	3242,88
508,94	3308,41
509,15	3324,80
509,36	3185,54
509,57	3144,58
509,77	3183,49
509,98	3163,01
510,19	3236,73
510,40	3136,38
510,61	3142,53
510,81	3042,18
511,02	3208,06
511,23	3072,90
511,44	2997,12
511,65	2890,63
511,85	3136,38
512,06	2878,34
512,27	2907,01
512,48	3175,30
512,69	2984,83
512,89	3017,60
513,10	2923,40
513,31	2913,16
513,52	2800,52
513,73	2939,78
513,93	2970,50
514,14	2810,76
514,35	2853,76
514,56	2917,25
514,76	2810,76
514,97	2810,76
515,18	2866,05
515,39	2847,62
515,60	2847,62
515,80	2734,98
516,01	2669,45
516,22	2599,82
516,43	2757,51
516,63	2900,87
516,84	2829,19
517,05	2694,02
517,26	2634,63
517,46	2526,09
517,67	2747,27
517,88	2450,31
518,09	2556,81
518,29	2470,79
518,50	2620,30
518,71	2485,13
518,92	2704,26
519,12	2483,08
519,33	2521,99
519,54	2454,41
519,75	2628,49
519,95	2476,94
520,16	2546,57
520,37	2403,21
520,57	2435,98
520,78	2628,49
520,99	2515,85
521,20	2548,62
521,40	2298,77
521,61	2536,33
521,82	2329,48
522,03	2261,90
522,23	2438,03
522,44	2435,98
522,65	2278,29
522,85	2153,36
523,06	2366,35
523,27	2341,77
523,48	2407,31
523,68	2392,97
523,89	2495,37
524,10	2319,24
524,30	2255,76
524,51	2251,66
524,72	2311,05
524,93	2165,65
525,13	2192,27
525,34	2474,89
525,55	2395,02
525,75	2241,42
525,96	2132,88
526,17	2241,42
526,37	2309,01
526,58	2261,90
526,79	2190,22
526,99	2188,17
527,20	2179,98
527,41	2096,02
527,62	2085,78
527,82	2143,12
528,03	2179,98
528,24	2055,06
528,44	2237,33
528,65	2126,74
528,86	2155,41
529,06	2243,47
529,27	1999,76
529,48	2007,95
529,68	2147,22
529,89	2085,78
530,10	2114,45
530,30	2083,73
530,51	2055,06
530,72	2098,06
530,92	2024,34
531,13	2038,67
531,34	2136,98
531,54	2034,58
531,75	2163,60
531,96	2100,11
532,16	1987,47
532,37	2059,15
532,57	1973,14
532,78	2048,91
532,99	2030,48
533,19	2112,40
533,40	1971,09
533,61	1960,85
533,81	2007,95
534,02	1858,45
534,23	1958,80
534,43	2016,15
534,64	1966,99
534,84	1874,84
535,05	1891,22
535,26	1985,43
535,46	1983,38
535,67	1960,85
535,88	1936,27
536,08	1862,55
536,29	2055,06
536,49	1983,38
536,70	1911,70
536,91	1760,15
537,11	1964,95
537,32	1870,74
537,53	1846,16
537,73	2067,34
537,94	1776,53
538,14	1923,99
538,35	1819,54
538,56	1862,55
538,76	1797,01
538,97	1956,75
539,17	1928,08
539,38	1964,95
539,59	1915,80
539,79	1788,82
540,00	1835,92
540,20	1733,53
540,41	1817,49
540,62	2003,86
540,82	1751,96
541,03	1797,01
541,23	1862,55
541,44	1901,46
541,64	1815,44
541,85	1821,59
542,06	1747,86
542,26	1674,13
542,47	1930,13
542,67	1790,87
542,88	1743,77
543,08	1889,17
543,29	1784,73
543,50	1848,21
543,70	1837,97
543,91	1766,29
544,11	1661,85
544,32	1903,51
544,52	1829,78
544,73	1649,56
544,94	1631,13
545,14	1700,76
545,35	1751,96
545,55	1708,95
545,76	1702,81
545,96	1704,85
546,17	1713,05
546,37	1762,20
546,58	1756,05
546,78	1637,27
546,99	1676,18
547,20	1723,29
547,40	1735,57
547,61	1661,85
547,81	1721,24
548,02	1579,93
548,22	1678,23
548,43	1819,54
548,63	1653,66
548,84	1608,60
549,04	1641,37
549,25	1643,42
549,45	1633,18
549,66	1581,98
549,86	1706,90
550,07	1661,85
550,27	1459,10
550,48	1612,70
550,69	1672,09
550,89	1698,71
551,10	1563,54
551,30	1614,74
551,51	1600,41
551,71	1614,74
551,92	1659,80
552,12	1581,98
552,33	1565,59
552,53	1483,67
552,74	1700,76
552,94	1694,61
553,15	1465,24
553,35	1612,70
553,56	1543,06
553,76	1627,03
553,97	1663,89
554,17	1571,74
554,38	1532,82
554,58	1592,22
554,79	1457,05
554,99	1481,63
555,19	1469,34
555,40	1448,86
555,60	1633,18
555,81	1424,28
556,01	1514,39
556,22	1516,44
556,42	1571,74
556,63	1485,72
556,83	1467,29
557,04	1524,63
557,24	1561,50
557,45	1487,77
557,65	1405,85
557,86	1303,45
558,06	1424,28
558,27	1500,06
558,47	1428,38
558,67	1487,77
558,88	1520,54
559,08	1364,89
559,29	1375,13
559,49	1518,49
559,70	1428,38
559,90	1411,99
560,11	1438,62
560,31	1426,33
560,52	1452,95
560,72	1426,33
560,92	1426,33
561,13	1498,01
561,33	1405,85
561,54	1336,22
561,74	1481,63
561,95	1397,66
562,15	1457,05
562,35	1317,79
562,56	1465,24
562,76	1362,84
562,97	1342,36
563,17	1336,22
563,38	1475,48
563,58	1330,08
563,78	1301,40
563,99	1340,32
564,19	1362,84
564,40	1395,61
564,60	1426,33
564,80	1248,16
565,01	1244,06
565,21	1471,39
565,42	1455,00
565,62	1364,89
565,83	1350,56
566,03	1377,18
566,23	1311,64
566,44	1311,64
566,64	1256,35
566,85	1379,23
567,05	1264,54
567,25	1252,25
567,46	1319,84
567,66	1352,60
567,86	1297,31
568,07	1233,82
568,27	1227,68
568,48	1158,05
568,68	1209,25
568,88	1229,73
569,09	1270,68
569,29	1262,49
569,50	1194,91
569,70	1225,63
569,90	1321,88
570,11	1328,03
570,31	1235,87
570,51	1309,60
570,72	1360,80
570,92	1299,36
571,13	1309,60
571,33	1153,95
571,53	1262,49
571,74	1420,19
571,94	1291,16
572,14	1147,81
572,35	1153,95
572,55	1199,01
572,75	1282,97
572,96	1256,35
573,16	1354,65
573,36	1211,29
573,57	1223,58
573,77	1268,64
573,97	1328,03
574,18	1168,29
574,38	1254,30
574,59	1203,10
574,79	1260,45
574,99	1215,39
575,20	1248,16
575,40	1180,57
575,60	1239,97
575,81	1303,45
576,01	1266,59
576,21	1217,44
576,42	1127,33
576,62	1180,57
576,82	1156,00
577,02	1151,90
577,23	1274,78
577,43	1217,44
577,63	1186,72
577,84	1127,33
578,04	1205,15
578,24	1051,55
578,45	1201,05
578,65	1088,42
578,85	1151,90
579,06	1217,44
579,26	1248,16
579,46	1149,85
579,67	1112,99
579,87	1176,48
580,07	1176,48
580,27	1104,80
580,48	1219,49
580,68	1129,38
580,88	1172,38
581,09	1188,77
581,29	1158,05
581,49	1156,00
581,69	1043,36
581,90	1119,14
582,10	1008,54
582,30	1110,94
582,51	1217,44
582,71	1106,85
582,91	1024,93
583,11	1088,42
583,32	1192,86
583,52	932,77
583,72	1010,59
583,93	1080,22
584,13	1094,56
584,33	1037,22
584,53	1119,14
584,74	1151,90
584,94	1002,40
585,14	977,83
585,34	1059,74
585,55	1067,94
585,75	1022,88
585,95	1076,13
586,15	981,92
586,36	1100,70
586,56	1119,14
586,76	1158,05
586,96	1088,42
587,17	1119,14
587,37	1112,99
587,57	1037,22
587,77	1090,46
587,98	1149,85
588,18	1029,02
588,38	947,11
588,58	1037,22
588,79	1084,32
588,99	932,77
589,19	1008,54
589,39	1082,27
589,60	1055,65
589,80	1139,61
590,00	1190,81
590,20	1008,54
590,40	990,11
590,61	986,02
590,81	1033,12
591,01	979,87
591,21	1049,50
591,42	1080,22
591,62	973,73
591,82	920,48
592,02	1002,40
592,22	1074,08
592,43	969,63
592,63	1045,41
592,83	1115,04
593,03	992,16
593,23	1026,98
593,44	1072,03
593,64	1000,35
593,84	1035,17
594,04	1008,54
594,24	988,07
594,45	1012,64
594,65	934,82
594,85	967,59
595,05	932,77
595,25	977,83
595,46	1035,17
595,66	1004,45
595,86	1049,50
596,06	916,39
596,26	990,11
596,46	889,76
596,67	973,73
596,87	910,24
597,07	877,47
597,27	922,53
597,47	969,63
597,67	947,11
597,88	930,72
598,08	918,43
598,28	1010,59
598,48	955,30
598,68	920,48
598,88	1041,31
599,09	1008,54
599,29	1006,50
599,49	1000,35
599,69	1037,22
599,89	1053,60
600,09	1043,36
600,30	1049,50
600,50	981,92
600,70	908,19
600,90	912,29
601,10	1012,64
601,30	963,49
601,50	924,58
601,71	1080,22
601,91	865,19
602,11	824,23
602,31	854,95
602,51	981,92
602,71	940,96
602,91	902,05
603,11	1022,88
603,32	959,39
603,52	930,72
603,72	953,25
603,92	799,65
604,12	930,72
604,32	951,20
604,52	979,87
604,72	918,43
604,93	971,68
605,13	996,26
605,33	1041,31
605,53	742,31
605,73	848,80
605,93	998,31
606,13	945,06
606,33	934,82
606,53	830,37
606,74	936,87
606,94	1004,45
607,14	906,15
607,34	834,47
607,54	842,66
607,74	1000,35
607,94	875,43
608,14	992,16
608,34	875,43
608,54	904,10
608,74	889,76
608,95	918,43
609,15	1055,65
609,35	875,43
609,55	893,86
609,75	963,49
609,95	938,91
610,15	854,95
610,35	881,57
610,55	889,76
610,75	807,84
610,95	809,89
611,15	861,09
611,35	932,77
611,55	893,86
611,76	936,87
611,96	857,00
612,16	879,52
612,36	983,97
612,56	955,30
612,76	988,07
612,96	1006,50
613,16	947,11
613,36	871,33
613,56	867,24
613,76	826,28
613,96	924,58
614,16	818,08
614,36	904,10
614,56	820,13
614,76	895,91
614,96	965,54
615,16	859,04
615,36	842,66
615,56	844,71
615,76	832,42
615,97	809,89
616,17	889,76
616,37	793,51
616,57	936,87
616,77	836,52
616,97	969,63
617,17	760,74
617,37	887,71
617,57	836,52
617,77	920,48
617,97	926,63
618,17	816,04
618,37	938,91
618,57	887,71
618,77	897,95
618,97	881,57
619,17	924,58
619,37	930,72
619,57	875,43
619,77	773,03
619,97	850,85
620,17	891,81
620,37	859,04
620,57	787,36
620,77	926,63
620,97	846,76
621,17	824,23
621,37	844,71
621,57	789,41
621,77	730,02
621,97	850,85
622,17	848,80
622,37	883,62
622,57	846,76
622,77	902,05
622,97	770,98
623,17	816,04
623,37	938,91
623,57	908,19
623,77	762,79
623,97	775,08
624,16	813,99
624,36	816,04
624,56	760,74
624,76	852,90
624,96	740,26
625,16	777,12
625,36	746,40
625,56	713,64
625,76	756,64
625,96	703,40
626,16	861,09
626,36	865,19
626,56	889,76
626,76	869,28
626,96	791,46
627,16	832,42
627,36	715,69
627,56	904,10
627,76	787,36
627,96	850,85
628,16	863,14
628,35	883,62
628,55	826,28
628,75	828,32
628,95	846,76
629,15	863,14
629,35	838,56
629,55	861,09
629,75	840,61
629,95	893,86
630,15	813,99
630,35	738,21
630,55	783,27
630,75	787,36
630,95	945,06
631,14	834,47
631,34	762,79
631,54	793,51
631,74	881,57
631,94	801,70
632,14	691,11
632,34	785,32
632,54	764,84
632,74	824,23
632,94	699,30
633,14	859,04
633,33	723,88
633,53	750,50
633,73	822,18
633,93	859,04
634,13	773,03
634,33	777,12
634,53	779,17
634,73	813,99
634,93	633,77
635,12	926,63
635,32	859,04
635,52	773,03
635,72	711,59
635,92	818,08
636,12	838,56
636,32	900,00
636,52	830,37
636,71	824,23
636,91	850,85
637,11	824,23
637,31	777,12
637,51	830,37
637,71	844,71
637,91	867,24
638,11	742,31
638,30	785,32
638,50	734,12
638,70	924,58
638,90	850,85
639,10	740,26
639,30	775,08
639,50	787,36
639,69	756,64
639,89	701,35
640,09	664,49
640,29	801,70
640,49	775,08
640,69	629,67
640,88	799,65
641,08	719,78
641,28	854,95
641,48	889,76
641,68	813,99
641,88	795,56
642,07	660,39
642,27	783,27
642,47	785,32
642,67	863,14
642,87	871,33
643,07	713,64
643,26	789,41
643,46	828,32
643,66	766,88
643,86	828,32
644,06	764,84
644,26	848,80
644,45	709,54
644,65	807,84
644,85	785,32
645,05	756,64
645,25	863,14
645,44	715,69
645,64	787,36
645,84	703,40
646,04	744,36
646,24	785,32
646,43	762,79
646,63	807,84
646,83	783,27
647,03	805,80
647,23	629,67
647,42	752,55
647,62	846,76
647,82	736,17
648,02	578,47
648,22	826,28
648,41	820,13
648,61	703,40
648,81	799,65
649,01	752,55
649,20	762,79
649,40	687,01
649,60	852,90
649,80	857,00
650,00	838,56
650,19	717,73
650,39	736,17
650,59	805,80
650,79	777,12
650,98	777,12
651,18	641,96
651,38	820,13
651,58	863,14
651,77	740,26
651,97	699,30
652,17	713,64
652,37	715,69
652,56	660,39
652,76	803,75
652,96	871,33
653,16	658,34
653,35	699,30
653,55	756,64
653,75	605,10
653,95	813,99
654,14	789,41
654,34	703,40
654,54	838,56
654,74	762,79
654,93	734,12
655,13	697,25
655,33	617,38
655,52	725,93
655,72	770,98
655,92	670,63
656,12	777,12
656,31	715,69
656,51	674,73
656,71	740,26
656,91	799,65
657,10	687,01
657,30	773,03
657,50	691,11
657,69	672,68
657,89	727,97
658,09	699,30
658,29	797,60
658,48	701,35
658,68	717,73
658,88	818,08
659,07	727,97
659,27	750,50
659,47	695,21
659,66	695,21
659,86	730,02
660,06	699,30
660,26	670,63
660,45	748,45
660,65	805,80
660,85	756,64
661,04	639,91
661,24	717,73
661,44	715,69
661,63	691,11
661,83	775,08
662,03	758,69
662,22	709,54
662,42	770,98
662,62	756,64
662,81	666,53
663,01	695,21
663,21	736,17
663,40	719,78
663,60	785,32
663,80	678,82
663,99	850,85
664,19	785,32
664,39	809,89
664,58	740,26
664,78	664,49
664,98	699,30
665,17	672,68
665,37	732,07
665,57	775,08
665,76	748,45
665,96	574,38
666,16	697,25
666,35	777,12
666,55	695,21
666,74	793,51
666,94	754,60
667,14	740,26
667,33	738,21
667,53	738,21
667,73	803,75
667,92	734,12
668,12	664,49
668,32	707,49
668,51	666,53
668,71	727,97
668,90	736,17
669,10	648,10
669,30	727,97
669,49	723,88
669,69	818,08
669,89	578,47
670,08	734,12
670,28	1039,26
670,47	619,43
670,67	674,73
670,87	717,73
671,06	805,80
671,26	770,98
671,45	641,96
671,65	691,11
671,85	693,16
672,04	691,11
672,24	705,45
672,43	785,32
672,63	721,83
672,83	644,01
673,02	590,76
673,22	635,81
673,41	666,53
673,61	615,33
673,81	654,25
674,00	742,31
674,20	701,35
674,39	687,01
674,59	658,34
674,78	644,01
674,98	811,94
675,18	818,08
675,37	756,64
675,57	693,16
675,76	744,36
675,96	777,12
676,15	738,21
676,35	723,88
676,55	687,01
676,74	723,88
676,94	709,54
677,13	641,96
677,33	820,13
677,52	682,92
677,72	707,49
677,91	656,29
678,11	723,88
678,31	666,53
678,50	662,44
678,70	703,40
678,89	727,97
679,09	631,72
679,28	648,10
679,48	715,69
679,67	623,53
679,87	666,53
680,06	910,24
680,26	764,84
680,46	730,02
680,65	711,59
680,85	703,40
681,04	644,01
681,24	746,40
681,43	678,82
681,63	781,22
681,82	711,59
682,02	666,53
682,21	603,05
682,41	680,87
682,60	744,36
682,80	689,06
682,99	631,72
683,19	652,20
683,38	797,60
683,58	740,26
683,77	625,57
683,97	699,30
684,16	768,93
684,36	613,29
684,55	633,77
684,75	598,95
684,94	662,44
685,14	662,44
685,33	592,81
685,53	684,97
685,72	549,80
685,92	730,02
686,11	650,15
686,31	572,33
686,50	785,32
686,70	678,82
686,89	607,14
687,09	572,33
687,28	670,63
687,48	557,99
687,67	648,10
687,87	594,86
688,06	603,05
688,26	787,36
688,45	658,34
688,65	582,57
688,84	687,01
689,03	529,32
689,23	588,71
689,42	797,60
689,62	697,25
689,81	687,01
690,01	684,97
690,20	705,45
690,40	641,96
690,59	764,84
690,79	551,85
690,98	674,73
691,17	625,57
691,37	689,06
691,56	652,20
691,76	666,53
691,95	752,55
692,15	684,97
692,34	707,49
692,54	613,29
692,73	648,10
692,92	590,76
693,12	582,57
693,31	529,32
693,51	678,82
693,70	570,28
693,90	629,67
694,09	564,14
694,28	619,43
694,48	631,72
694,67	611,24
694,87	633,77
695,06	656,29
695,26	574,38
695,45	629,67
695,64	684,97
695,84	672,68
696,03	504,74
696,23	623,53
696,42	586,66
696,61	674,73
696,81	623,53
697,00	623,53
697,20	656,29
697,39	666,53
697,58	535,46
697,78	775,08
697,97	689,06
698,17	601,00
698,36	605,10
698,55	494,50
698,75	723,88
698,94	687,01
699,14	519,08
699,33	570,28
699,52	594,86
699,72	687,01
699,91	557,99
700,10	627,62
700,30	584,62
700,49	596,90
700,69	623,53
700,88	641,96
701,07	555,94
701,27	578,47
701,46	770,98
701,65	605,10
701,85	672,68
702,04	707,49
702,23	564,14
702,43	508,84
702,62	615,33
702,82	687,01
703,01	709,54
703,20	650,15
703,40	721,83
703,59	680,87
703,78	586,66
703,98	662,44
704,17	580,52
704,36	680,87
704,56	660,39
704,75	549,80
704,94	537,51
705,14	687,01
705,33	625,57
705,52	580,52
705,72	656,29
705,91	613,29
706,10	594,86
706,30	678,82
706,49	680,87
706,68	623,53
706,88	693,16
707,07	615,33
707,26	582,57
707,46	695,21
707,65	701,35
707,84	658,34
708,04	541,61
708,23	658,34
708,42	697,25
708,62	560,04
708,81	590,76
709,00	684,97
709,19	584,62
709,39	650,15
709,58	588,71
709,77	594,86
709,97	607,14
710,16	560,04
710,35	631,72
710,55	594,86
710,74	680,87
710,93	527,27
711,12	588,71
711,32	633,77
711,51	635,81
711,70	551,85
711,90	641,96
712,09	566,18
712,28	619,43
712,47	541,61
712,67	658,34
712,86	625,57
713,05	617,38
713,24	625,57
713,44	660,39
713,63	646,05
713,82	568,23
714,02	695,21
714,21	666,53
714,40	641,96
714,59	576,42
714,79	514,98
714,98	623,53
715,17	738,21
715,36	592,81
715,56	648,10
715,75	629,67
715,94	701,35
716,13	603,05
716,33	635,81
716,52	678,82
716,71	590,76
716,90	609,19
717,10	549,80
717,29	603,05
717,48	723,88
717,67	641,96
717,87	543,66
718,06	707,49
718,25	588,71
718,44	611,24
718,63	709,54
718,83	492,46
719,02	592,81
719,21	523,18
719,40	584,62
719,60	574,38
719,79	619,43
719,98	623,53
720,17	564,14
720,36	592,81
720,56	625,57
720,75	492,46
720,94	674,73
721,13	635,81
721,33	631,72
721,52	527,27
721,71	631,72
721,90	615,33
722,09	654,25
722,29	592,81
722,48	588,71
722,67	629,67
722,86	795,56
723,05	590,76
723,24	682,92
723,44	555,94
723,63	615,33
723,82	617,38
724,01	592,81
724,20	586,66
724,40	517,03
724,59	580,52
724,78	400,30
724,97	601,00
725,16	601,00
725,35	613,29
725,55	594,86
725,74	621,48
725,93	637,86
726,12	682,92
726,31	635,81
726,51	727,97
726,70	625,57
726,89	627,62
727,08	580,52
727,27	682,92
727,46	644,01
727,65	541,61
727,85	572,33
728,04	549,80
728,23	523,18
728,42	531,37
728,61	607,14
728,80	598,95
729,00	633,77
729,19	525,22
729,38	650,15
729,57	592,81
729,76	519,08
729,95	754,60
730,14	617,38
730,33	529,32
730,53	551,85
730,72	578,47
730,91	588,71
731,10	676,77
731,29	693,16
731,48	633,77
731,67	545,70
731,86	629,67
732,06	633,77
732,25	512,94
732,44	644,01
732,63	682,92
732,82	652,20
733,01	666,53
733,20	590,76
733,39	590,76
733,59	566,18
733,78	512,94
733,97	654,25
734,16	551,85
734,35	603,05
734,54	613,29
734,73	551,85
734,92	615,33
735,11	547,75
735,30	639,91
735,49	605,10
735,69	711,59
735,88	588,71
736,07	652,20
736,26	504,74
736,45	514,98
736,64	592,81
736,83	658,34
737,02	592,81
737,21	596,90
737,40	535,46
737,59	664,49
737,78	568,23
737,98	605,10
738,17	549,80
738,36	641,96
738,55	549,80
738,74	553,90
738,93	570,28
739,12	457,64
739,31	527,27
739,50	574,38
739,69	658,34
739,88	594,86
740,07	590,76
740,26	596,90
740,45	656,29
740,64	572,33
740,83	498,60
741,02	521,13
741,22	619,43
741,41	613,29
741,60	639,91
741,79	508,84
741,98	603,05
742,17	621,48
742,36	596,90
742,55	582,57
742,74	695,21
742,93	611,24
743,12	570,28
743,31	500,65
743,50	631,72
743,69	693,16
743,88	562,09
744,07	562,09
744,26	705,45
744,45	560,04
744,64	605,10
744,83	527,27
745,02	539,56
745,21	572,33
745,40	527,27
745,59	625,57
745,78	574,38
745,97	605,10
746,16	551,85
746,35	668,58
746,54	527,27
746,73	435,11
746,92	498,60
747,11	467,88
747,30	557,99
747,49	566,18
747,68	555,94
747,87	512,94
748,06	609,19
748,25	596,90
748,44	535,46
748,63	582,57
748,82	410,54
749,01	459,69
749,20	492,46
749,39	519,08
749,58	512,94
749,77	586,66
749,96	551,85
750,15	564,14
750,34	510,89
750,53	592,81
750,72	560,04
750,91	494,50
751,10	639,91
751,29	547,75
751,48	400,30
751,67	431,02
751,86	580,52
752,04	537,51
752,23	562,09
752,42	545,70
752,61	545,70
752,80	613,29
752,99	455,59
753,18	508,84
753,37	543,66
753,56	398,25
753,75	517,03
753,94	424,87
754,13	533,42
754,32	471,98
754,51	465,83
754,70	625,57
754,89	541,61
755,08	580,52
755,27	404,39
755,45	482,22
755,64	590,76
755,83	564,14
756,02	514,98
756,21	490,41
756,40	492,46
756,59	435,11
756,78	437,16
756,97	437,16
757,16	406,44
757,35	557,99
757,54	474,03
757,72	541,61
757,91	365,48
758,10	469,93
758,29	426,92
758,48	543,66
758,67	408,49
758,86	381,87
759,05	449,45
759,24	478,12
759,43	469,93
759,61	316,33
759,80	347,05
759,99	437,16
760,18	420,78
760,37	431,02
760,56	416,68
760,75	486,31
760,94	441,26
761,13	400,30
761,31	504,74
761,50	449,45
761,69	428,97
761,88	402,35
762,07	406,44
762,26	533,42
762,45	476,07
762,64	367,53
762,82	383,91
763,01	420,78
763,20	480,17
763,39	390,06
763,58	406,44
763,77	353,19
763,96	330,67
764,14	336,81
764,33	363,43
764,52	416,68
764,71	474,03
764,90	418,73
765,09	342,96
765,27	347,05
765,46	469,93
765,65	312,24
765,84	316,33
766,03	474,03
766,22	385,96
766,41	424,87
766,59	412,59
766,78	435,11
766,97	400,30
767,16	422,83
767,35	367,53
767,54	510,89
767,72	523,18
767,91	439,21
768,10	408,49
768,29	424,87
768,48	408,49
768,66	437,16
768,85	525,22
769,04	302,00
769,23	400,30
769,42	451,50
769,61	500,65
769,79	381,87
769,98	416,68
770,17	406,44
770,36	496,55
770,55	363,43
770,73	531,37
770,92	418,73
771,11	402,35
771,30	367,53
771,49	459,69
771,67	488,36
771,86	431,02
772,05	377,77
772,24	402,35
772,42	420,78
772,61	449,45
772,80	369,58
772,99	371,63
773,18	381,87
773,36	377,77
773,55	326,57
773,74	336,81
773,93	390,06
774,11	398,25
774,30	465,83
774,49	334,76
774,68	408,49
774,87	400,30
775,05	390,06
775,24	279,47
775,43	480,17
775,62	439,21
775,80	373,67
775,99	453,55
776,18	447,40
776,37	392,11
776,55	416,68
776,74	367,53
776,93	418,73
777,12	447,40
777,30	330,67
777,49	351,15
777,68	318,38
777,87	314,28
778,05	334,76
778,24	398,25
778,43	349,10
778,62	359,34
778,80	320,43
778,99	402,35
779,18	383,91
779,36	449,45
779,55	281,52
779,74	408,49
779,93	402,35
780,11	375,72
780,30	363,43
780,49	476,07
780,68	416,68
780,86	418,73
781,05	412,59
781,24	377,77
781,42	336,81
781,61	340,91
781,80	236,46
781,98	365,48
782,17	404,39
782,36	320,43
782,55	418,73
782,73	236,46
782,92	510,89
783,11	236,46
783,29	345,00
783,48	361,39
783,67	336,81
783,85	336,81
784,04	328,62
784,23	342,96
784,42	281,52
784,60	373,67
784,79	400,30
784,98	314,28
785,16	330,67
785,35	287,66
785,54	365,48
785,72	455,59
785,91	373,67
786,10	302,00
786,28	445,35
786,47	297,90
786,66	373,67
786,84	355,24
787,03	383,91
787,22	252,84
787,40	381,87
787,59	363,43
787,78	349,10
787,96	269,23
788,15	394,15
788,34	349,10
788,52	326,57
788,71	340,91
788,89	355,24
789,08	261,04
789,27	412,59
789,45	349,10
789,64	220,08
789,83	373,67
790,01	328,62
790,20	304,04
790,39	371,63
790,57	332,72
790,76	320,43
790,95	320,43
791,13	326,57
791,32	414,63
791,50	377,77
791,69	302,00
791,88	365,48
792,06	426,92
792,25	314,28
792,43	205,74
792,62	394,15
792,81	320,43
792,99	256,94
793,18	363,43
793,37	332,72
793,55	289,71
793,74	322,48
793,92	291,76
794,11	351,15
794,30	191,41
794,48	355,24
794,67	213,93
794,85	172,97
795,04	232,36
795,23	349,10
795,41	256,94
795,60	369,58
795,78	218,03
795,97	320,43
796,15	408,49
796,34	355,24
796,53	232,36
796,71	345,00
796,90	347,05
797,08	240,56
797,27	369,58
797,46	226,22
797,64	238,51
797,83	314,28
798,01	195,50
798,20	312,24
798,38	265,13
798,57	160,69
798,76	236,46
798,94	193,45
799,13	283,56
799,31	289,71
799,50	258,99
799,68	263,08
799,87	191,41
800,05	271,28
800,24	236,46
800,43	172,97
800,61	428,97
800,80	326,57
800,98	267,18
801,17	209,84
801,35	220,08
801,54	195,50
801,72	222,12
801,91	232,36
802,09	287,66
802,28	302,00
802,46	293,80
802,65	236,46
802,84	355,24
803,02	189,36
803,21	250,80
803,39	193,45
803,58	383,91
803,76	273,32
803,95	275,37
804,13	164,78
804,32	213,93
804,50	297,90
804,69	265,13
804,87	258,99
805,06	287,66
805,24	398,25
805,43	246,70
805,61	256,94
805,80	283,56
805,98	381,87
806,17	267,18
806,35	185,26
806,54	252,84
806,72	203,69
806,91	265,13
807,09	277,42
807,28	273,32
807,46	252,84
807,65	277,42
807,83	195,50
808,02	232,36
808,20	273,32
808,39	254,89
808,57	256,94
808,76	334,76
808,94	320,43
809,13	263,08
809,31	258,99
809,49	281,52
809,68	187,31
809,86	220,08
810,05	242,60
810,23	320,43
810,42	283,56
810,60	291,76
810,79	240,56
810,97	209,84
811,16	156,59
811,34	238,51
811,53	203,69
811,71	187,31
811,89	297,90
812,08	230,32
812,26	254,89
812,45	215,98
812,63	215,98
812,82	261,04
813,00	154,54
813,19	242,60
813,37	263,08
813,55	154,54
813,74	181,17
813,92	326,57
814,11	144,30
814,29	166,83
814,48	304,04
814,66	285,61
814,84	189,36
815,03	218,03
815,21	265,13
815,40	244,65
815,58	207,79
815,77	283,56
815,95	181,17
816,13	191,41
816,32	304,04
816,50	351,15
816,69	191,41
816,87	203,69
817,05	252,84
817,24	283,56
817,42	172,97
817,61	162,73
817,79	215,98
817,97	172,97
818,16	146,35
818,34	355,24
818,53	150,45
818,71	183,21
818,89	201,65
819,08	250,80
819,26	226,22
819,45	258,99
819,63	213,93
819,81	267,18
820,00	367,53
820,18	181,17
820,36	285,61
820,55	199,60
820,73	119,73
820,92	193,45
821,10	195,50
821,28	140,21
821,47	265,13
821,65	158,64
821,83	349,10
822,02	209,84
822,20	172,97
822,39	107,44
822,57	113,58
822,75	211,89
822,94	250,80
823,12	256,94
823,30	175,02
823,49	316,33
823,67	144,30
823,85	218,03
824,04	197,55
824,22	230,32
824,40	263,08
824,59	226,22
824,77	242,60
824,95	162,73
825,14	218,03
825,32	302,00
825,50	218,03
825,69	254,89
825,87	252,84
826,05	203,69
826,24	240,56
826,42	310,19
826,60	215,98
826,79	273,32
826,97	132,01
827,15	138,16
827,34	232,36
827,52	175,02
827,70	256,94
827,89	158,64
828,07	140,21
828,25	222,12
828,44	310,19
828,62	215,98
828,80	232,36
828,98	236,46
829,17	142,25
829,35	246,70
829,53	156,59
829,72	226,22
829,90	185,26
830,08	125,87
830,27	295,85
830,45	299,95
830,63	295,85
830,81	193,45
831,00	220,08
831,18	91,05
831,36	148,40
831,55	140,21
831,73	78,77
831,91	152,49
832,09	258,99
832,28	275,37
832,46	134,06
832,64	248,75
832,82	129,97
833,01	146,35
833,19	222,12
833,37	242,60
833,55	213,93
833,74	244,65
833,92	187,31
834,10	187,31
834,29	146,35
834,47	136,11
834,65	224,17
834,83	56,24
835,02	138,16
835,20	168,88
835,38	150,45
835,56	136,11
835,75	248,75
835,93	203,69
836,11	146,35
836,29	50,10
836,47	232,36
836,66	80,82
836,84	236,46
837,02	220,08
837,20	248,75
837,39	205,74
837,57	232,36
837,75	166,83
837,93	281,52
838,12	152,49
838,30	162,73
838,48	236,46
838,66	172,97
838,84	125,87
839,03	277,42
839,21	138,16
839,39	129,97
839,57	232,36
839,75	218,03
839,94	207,79
840,12	197,55
840,30	109,49
840,48	273,32
840,66	168,88
840,85	123,82
841,03	142,25
841,21	211,89
841,39	291,76
841,57	222,12
841,76	283,56
841,94	207,79
842,12	211,89
842,30	213,93
842,48	312,24
842,67	146,35
842,85	72,62
843,03	146,35
843,21	308,14
843,39	179,12
843,57	117,68
843,76	195,50
843,94	136,11
844,12	248,75
844,30	160,69
844,48	183,21
844,66	236,46
844,85	183,21
845,03	238,51
845,21	193,45
845,39	254,89
845,57	160,69
845,75	197,55
845,94	132,01
846,12	166,83
846,30	209,84
846,48	156,59
846,66	152,49
846,84	138,16
847,02	160,69
847,21	156,59
847,39	142,25
847,57	140,21
847,75	168,88
847,93	138,16
848,11	164,78
848,29	80,82
848,48	154,54
848,66	156,59
848,84	207,79
849,02	187,31
849,20	154,54
849,38	185,26
849,56	218,03
849,74	181,17
849,93	240,56
850,11	142,25
850,29	189,36
850,47	136,11
850,65	201,65
850,83	101,29
851,01	138,16
851,19	185,26
851,37	76,72
851,56	168,88
851,74	166,83
851,92	134,06
852,10	101,29
852,28	187,31
852,46	230,32
852,64	138,16
852,82	140,21
853,00	197,55
853,18	183,21
853,37	150,45
853,55	175,02
853,73	60,34
853,91	222,12
854,09	215,98
854,27	295,85
854,45	175,02
854,63	179,12
854,81	156,59
854,99	195,50
855,17	103,34
855,35	181,17
855,53	82,86
855,72	78,77
855,90	138,16
856,08	232,36
856,26	132,01
856,44	322,48
856,62	35,76
856,80	142,25
856,98	146,35
857,16	148,40
857,34	148,40
857,52	203,69
857,70	189,36
857,88	93,10
858,06	197,55
858,24	117,68
858,42	248,75
858,60	160,69
858,78	78,77
858,96	93,10
859,15	199,60
859,33	132,01
859,51	172,97
859,69	99,25
859,87	154,54
860,05	113,58
860,23	127,92
860,41	156,59
860,59	177,07
860,77	220,08
860,95	127,92
861,13	136,11
861,31	129,97
861,49	78,77
861,67	193,45
861,85	215,98
862,03	203,69
862,21	121,77
862,39	242,60
862,57	261,04
862,75	134,06
862,93	142,25
863,11	297,90
863,29	80,82
863,47	150,45
863,65	222,12
863,83	113,58
864,01	123,82
864,19	132,01
864,37	50,10
864,55	226,22
864,73	142,25
864,91	119,73
865,09	138,16
865,27	197,55
865,45	109,49
865,63	148,40
865,81	166,83
865,99	144,30
866,17	152,49
866,35	158,64
866,53	244,65
866,71	109,49
866,89	170,93
867,07	125,87
867,24	197,55
867,42	142,25
867,60	222,12
867,78	170,93
867,96	152,49
868,14	154,54
868,32	256,94
868,50	134,06
868,68	162,73
868,86	138,16
869,04	154,54
869,22	152,49
869,40	107,44
869,58	111,53
869,76	123,82
869,94	66,48
870,12	117,68
870,30	181,17
870,48	148,40
870,66	162,73
870,83	138,16
871,01	164,78
871,19	80,82
871,37	117,68
871,55	70,58
871,73	129,97
871,91	172,97
872,09	211,89
872,27	66,48
872,45	25,52
872,63	9,14
872,81	177,07
872,98	148,40
873,16	172,97
873,34	234,41
873,52	115,63
873,70	164,78
873,88	205,74
874,06	84,91
874,24	191,41
874,42	-11,34
874,60	35,76
874,78	129,97
874,95	172,97
875,13	82,86
875,31	123,82
875,49	156,59
875,67	150,45
875,85	105,39
876,03	68,53
876,21	222,12
876,39	132,01
876,56	142,25
876,74	9,14
876,92	150,45
877,10	187,31
877,28	150,45
877,46	93,10
877,64	205,74
877,82	152,49
877,99	41,90
878,17	144,30
878,35	164,78
878,53	78,77
878,71	211,89
878,89	86,96
879,07	191,41
879,24	179,12
879,42	197,55
879,60	134,06
879,78	207,79
879,96	46,00
880,14	252,84
880,32	105,39
880,49	115,63
880,67	123,82
880,85	129,97
881,03	58,29
881,21	164,78
881,39	113,58
881,56	146,35
881,74	140,21
881,92	84,91
882,10	134,06
882,28	181,17
882,46	207,79
882,63	58,29
882,81	72,62
882,99	191,41
883,17	107,44
883,35	195,50
883,52	172,97
883,70	150,45
883,88	107,44
884,06	113,58
884,24	136,11
884,42	228,27
884,59	115,63
884,77	142,25
884,95	185,26
885,13	150,45
885,31	232,36
885,48	70,58
885,66	234,41
885,84	183,21
886,02	123,82
886,20	187,31
886,37	215,98
886,55	265,13
886,73	121,77
886,91	119,73
887,08	168,88
887,26	181,17
887,44	80,82
887,62	97,20
887,80	191,41
887,97	138,16
888,15	154,54
888,33	119,73
888,51	123,82
888,68	121,77
888,86	107,44
889,04	144,30
889,22	168,88
889,40	121,77
889,57	119,73
889,75	246,70
889,93	125,87
890,11	238,51
890,28	162,73
890,46	152,49
890,64	132,01
890,82	236,46
890,99	144,30
891,17	89,01
891,35	164,78
891,53	170,93
891,70	152,49
891,88	60,34
892,06	70,58
892,24	84,91
892,41	78,77
892,59	46,00
892,77	119,73
892,94	91,05
893,12	97,20
893,30	76,72
893,48	150,45
893,65	195,50
893,83	99,25
894,01	109,49
894,19	146,35
894,36	232,36
894,54	60,34
894,72	129,97
894,89	64,43
895,07	146,35
895,25	52,14
895,43	123,82
895,60	142,25
895,78	86,96
895,96	152,49
896,13	172,97
896,31	136,11
896,49	197,55
896,66	80,82
896,84	234,41
897,02	127,92
897,20	164,78
897,37	150,45
897,55	60,34
897,73	154,54
897,90	172,97
898,08	146,35
898,26	191,41
898,43	89,01
898,61	183,21
898,79	70,58
898,96	66,48
899,14	64,43
899,32	132,01
899,49	121,77
899,67	140,21
899,85	160,69
900,02	205,74
900,20	74,67
900,38	107,44
900,55	220,08
900,73	267,18
900,91	84,91
901,08	117,68
901,26	164,78
901,44	121,77
901,61	123,82
901,79	195,50
901,97	162,73
902,14	111,53
902,32	213,93
902,50	129,97
902,67	123,82
902,85	129,97
903,02	148,40
903,20	37,81
903,38	154,54
903,55	31,66
903,73	213,93
903,91	123,82
904,08	211,89
904,26	113,58
904,44	191,41
904,61	52,14
904,79	93,10
904,96	91,05
905,14	170,93
905,32	109,49
905,49	132,01
905,67	-19,54
905,84	68,53
906,02	119,73
906,20	113,58
906,37	291,76
906,55	125,87
906,73	82,86
906,90	160,69
907,08	89,01
907,25	154,54
907,43	207,79
907,61	62,38
907,78	68,53
907,96	125,87
908,13	156,59
908,31	209,84
908,48	86,96
908,66	84,91
908,84	146,35
909,01	181,17
909,19	228,27
909,36	101,29
909,54	99,25
909,72	97,20
909,89	35,76
910,07	48,05
910,24	191,41
910,42	236,46
910,59	25,52
910,77	97,20
910,95	25,52
911,12	48,05
911,30	52,14
911,47	127,92
911,65	97,20
911,82	101,29
912,00	181,17
912,17	74,67
912,35	140,21
912,53	80,82
912,70	99,25
912,88	33,71
913,05	179,12
913,23	101,29
913,40	103,34
913,58	39,86
913,75	74,67
913,93	2,99
914,10	70,58
914,28	70,58
914,46	9,14
914,63	50,10
914,81	201,65
914,98	29,62
915,16	134,06
915,33	48,05
915,51	101,29
915,68	177,07
915,86	150,45
916,03	84,91
916,21	35,76
916,38	140,21
916,56	25,52
916,73	193,45
916,91	134,06
917,08	56,24
917,26	95,15
917,43	138,16
917,61	9,14
917,78	185,26
917,96	7,09
918,13	60,34
918,31	117,68
918,48	-17,49
918,66	-42,06
918,83	242,60
919,01	152,49
919,18	70,58
919,36	7,09
919,53	185,26
919,71	267,18
919,88	66,48
920,06	82,86
920,23	113,58
920,41	82,86
920,58	168,88
920,76	52,14
920,93	105,39
921,11	46,00
921,28	121,77
921,45	238,51
921,63	158,64
921,80	48,05
921,98	127,92
922,15	68,53
922,33	27,57
922,50	191,41
922,68	142,25
922,85	132,01
923,03	76,72
923,20	203,69
923,38	150,45
923,55	138,16
923,72	97,20
923,90	277,42
924,07	-19,54
924,25	158,64
924,42	226,22
924,60	37,81
924,77	41,90
924,95	142,25
925,12	215,98
925,29	218,03
925,47	76,72
925,64	33,71
925,82	146,35
925,99	89,01
926,17	74,67
926,34	86,96
926,51	84,91
926,69	105,39
926,86	115,63
927,04	93,10
927,21	109,49
927,38	48,05
927,56	48,05
927,73	164,78
927,91	140,21
928,08	285,61
928,25	148,40
928,43	109,49
928,60	50,10
928,78	109,49
928,95	109,49
929,12	160,69
929,30	76,72
929,47	136,11
929,65	23,47
929,82	5,04
929,99	72,62
930,17	84,91
930,34	125,87
930,52	93,10
930,69	58,29
930,86	115,63
931,04	99,25
931,21	80,82
931,38	127,92
931,56	41,90
931,73	166,83
931,91	89,01
932,08	72,62
932,25	172,97
932,43	127,92
932,60	50,10
932,77	86,96
932,95	97,20
933,12	113,58
933,29	113,58
933,47	95,15
933,64	127,92
933,82	35,76
933,99	54,19
934,16	50,10
934,34	117,68
934,51	84,91
934,68	107,44
934,86	232,36
935,03	25,52
935,20	107,44
935,38	60,34
935,55	41,90
935,72	93,10
935,90	56,24
936,07	95,15
936,24	86,96
936,42	154,54
936,59	115,63
936,76	144,30
936,94	15,28
937,11	29,62
937,28	46,00
937,46	25,52
937,63	121,77
937,80	123,82
937,97	168,88
938,15	132,01
938,32	142,25
938,49	181,17
938,67	33,71
938,84	193,45
939,01	76,72
939,19	103,34
939,36	158,64
939,53	115,63
939,70	207,79
939,88	80,82
940,05	189,36
940,22	211,89
940,40	218,03
940,57	154,54
940,74	46,00
940,92	84,91
941,09	11,18
941,26	0,94
941,43	158,64
941,61	93,10
941,78	54,19
941,95	121,77
942,12	86,96
942,30	66,48
942,47	93,10
942,64	80,82
942,82	185,26
942,99	242,60
943,16	48,05
943,33	37,81
943,51	35,76
943,68	115,63
943,85	41,90
944,02	177,07
944,20	168,88
944,37	80,82
944,54	181,17
944,71	127,92
944,89	111,53
945,06	113,58
945,23	60,34
945,40	150,45
945,58	105,39
945,75	23,47
945,92	203,69
946,09	107,44
946,27	119,73
946,44	103,34
946,61	121,77
946,78	95,15
946,95	89,01
947,13	138,16
947,30	115,63
947,47	66,48
947,64	66,48
947,82	84,91
947,99	113,58
948,16	121,77
948,33	109,49
948,50	39,86
948,68	119,73
948,85	25,52
949,02	148,40
949,19	111,53
949,36	127,92
949,54	2,99
949,71	179,12
949,88	-21,58
950,05	193,45
950,22	91,05
950,40	84,91
950,57	54,19
950,74	179,12
950,91	179,12
951,08	82,86
951,26	97,20
951,43	105,39
951,60	64,43
951,77	158,64
951,94	132,01
952,11	146,35
952,29	56,24
952,46	7,09
952,63	187,31
952,80	132,01
952,97	103,34
953,15	150,45
953,32	35,76
953,49	66,48
953,66	101,29
953,83	41,90
954,00	60,34
954,17	144,30
954,35	269,23
954,52	2,99
954,69	134,06
954,86	199,60
955,03	99,25
955,20	123,82
955,38	101,29
955,55	109,49
955,72	127,92
955,89	74,67
956,06	156,59
956,23	58,29
956,40	37,81
956,58	64,43
956,75	39,86
956,92	72,62
957,09	2,99
957,26	164,78
957,43	70,58
957,60	101,29
957,77	41,90
957,95	91,05
958,12	58,29
958,29	115,63
958,46	203,69
958,63	35,76
958,80	60,34
958,97	189,36
959,14	99,25
959,31	35,76
959,49	9,14
959,66	115,63
959,83	76,72
960,00	138,16
960,17	127,92
960,34	76,72
960,51	127,92
960,68	185,26
960,85	207,79
961,02	60,34
961,20	37,81
961,37	-37,97
961,54	138,16
961,71	101,29
961,88	84,91
962,05	9,14
962,22	113,58
962,39	52,14
962,56	68,53
962,73	64,43
962,90	27,57
963,07	111,53
963,24	46,00
963,42	15,28
963,59	132,01
963,76	168,88
963,93	240,56
964,10	105,39
964,27	132,01
964,44	129,97
964,61	134,06
964,78	66,48
964,95	70,58
965,12	64,43
965,29	179,12
965,46	46,00
965,63	121,77
965,80	129,97
965,97	-13,39
966,14	70,58
966,31	35,76
966,48	136,11
966,66	119,73
966,83	82,86
967,00	117,68
967,17	195,50
967,34	56,24
967,51	111,53
967,68	91,05
967,85	113,58
968,02	168,88
968,19	58,29
968,36	105,39
968,53	62,38
968,70	64,43
968,87	35,76
969,04	89,01
969,21	95,15
969,38	297,90
969,55	52,14
969,72	93,10
969,89	121,77
970,06	125,87
970,23	39,86
970,40	113,58
970,57	105,39
970,74	144,30
970,91	132,01
971,08	-21,58
971,25	123,82
971,42	127,92
971,59	144,30
971,76	13,23
971,93	91,05
972,10	33,71
972,27	19,38
972,44	105,39
972,61	111,53
972,78	142,25
972,95	142,25
973,12	179,12
973,29	132,01
973,46	107,44
973,63	82,86
973,80	97,20
973,97	5,04
974,14	107,44
974,30	111,53
974,47	179,12
974,64	134,06
974,81	97,20
974,98	248,75
975,15	56,24
975,32	93,10
975,49	50,10
975,66	25,52
975,83	105,39
976,00	117,68
976,17	70,58
976,34	21,42
976,51	74,67
976,68	37,81
976,85	109,49
977,02	109,49
977,19	136,11
977,36	62,38
977,52	146,35
977,69	89,01
977,86	172,97
978,03	2,99
978,20	86,96
978,37	62,38
978,54	181,17
978,71	185,26
978,88	148,40
979,05	43,95
979,22	33,71
979,39	142,25
979,56	54,19
979,72	2,99
979,89	142,25
980,06	86,96
980,23	285,61
980,40	66,48
980,57	35,76
980,74	33,71
980,91	37,81
981,08	70,58
981,25	113,58
981,41	89,01
981,58	19,38
981,75	58,29
981,92	191,41
982,09	74,67
982,26	15,28
982,43	25,52
982,60	70,58
982,77	103,34
982,93	84,91
983,10	113,58
983,27	68,53
983,44	78,77
983,61	101,29
983,78	95,15
983,95	11,18
984,11	84,91
984,28	185,26
984,45	125,87
984,62	99,25
984,79	70,58
984,96	189,36
985,13	166,83
985,30	134,06
985,46	-1,10
985,63	41,90
985,80	170,93
985,97	105,39
986,14	27,57
986,31	121,77
986,47	29,62
986,64	46,00
986,81	107,44
986,98	68,53
987,15	91,05
987,32	64,43
987,48	113,58
987,65	80,82
987,82	33,71
987,99	172,97
988,16	504,74
988,33	302,00
988,49	35,76
988,66	138,16
988,83	68,53
989,00	123,82
989,17	70,58
989,34	162,73
989,50	140,21
989,67	50,10
989,84	0,94
990,01	60,34
990,18	105,39
990,34	166,83
990,51	80,82
990,68	97,20
990,85	181,17
991,02	97,20
991,18	109,49
991,35	46,00
991,52	121,77
991,69	48,05
991,86	142,25
992,02	117,68
992,19	39,86
992,36	158,64
992,53	101,29
992,69	82,86
992,86	168,88
993,03	129,97
993,20	-15,44
993,37	109,49
993,53	146,35
993,70	35,76
993,87	64,43
994,04	99,25
994,20	13,23
994,37	21,42
994,54	48,05
994,71	72,62
994,87	109,49
995,04	121,77
995,21	125,87
995,38	62,38
995,55	74,67
995,71	39,86
995,88	156,59
996,05	166,83
996,22	127,92
996,38	84,91
996,55	46,00
996,72	58,29
996,88	168,88
997,05	1092,51
997,22	33,71
997,39	-9,30
997,55	138,16
997,72	134,06
997,89	58,29
998,06	37,81
998,22	72,62
998,39	-19,54
998,56	15,28
998,73	84,91
998,89	103,34
999,06	78,77
999,23	15,28
999,39	117,68
999,56	170,93
999,73	29,62
999,90	80,82
1000,06	197,55
1000,23	142,25
1000,40	170,93
1000,56	158,64
1000,73	91,05
1000,90	78,77
1001,06	101,29
1001,23	72,62
1001,40	154,54
1001,57	132,01
1001,73	-21,58
1001,90	-3,15
1002,07	58,29
1002,23	160,69
1002,40	35,76
1002,57	132,01
1002,73	109,49
1002,90	64,43
1003,07	101,29
1003,23	21,42
1003,40	-17,49
1003,57	29,62
1003,73	82,86
1003,90	89,01
1004,07	82,86
1004,23	21,42
1004,40	107,44
1004,57	72,62
1004,73	-23,63
1004,90	15,28
1005,07	78,77
1005,23	52,14
1005,40	46,00
1005,57	78,77
1005,73	78,77
1005,90	-33,87
1006,07	52,14
1006,23	66,48
1006,40	109,49
1006,57	39,86
1006,73	113,58
1006,90	89,01
1007,06	101,29
1007,23	144,30
1007,40	58,29
1007,56	175,02
1007,73	168,88
1007,90	60,34
1008,06	109,49
1008,23	72,62
1008,40	54,19
1008,56	5,04
1008,73	54,19
1008,89	43,95
1009,06	156,59
1009,23	7,09
1009,39	117,68
1009,56	17,33
1009,72	152,49
1009,89	105,39
1010,06	54,19
1010,22	93,10
1010,39	60,34
1010,55	82,86
1010,72	43,95
1010,89	58,29
1011,05	107,44
1011,22	43,95
1011,38	82,86
1011,55	52,14
1011,72	80,82
1011,88	103,34
1012,05	101,29
1012,21	68,53
1012,38	82,86
1012,55	25,52
1012,71	-25,68
1012,88	166,83
1013,04	54,19
1013,21	43,95
1013,37	224,17
1013,54	132,01
1013,71	66,48
1013,87	152,49
1014,04	144,30
1014,20	121,77
1014,37	113,58
1014,53	121,77
1014,70	60,34
1014,87	50,10
1015,03	148,40
1015,20	107,44
1015,36	60,34
1015,53	64,43
1015,69	97,20
1015,86	54,19
1016,02	84,91
1016,19	191,41
1016,36	113,58
1016,52	5,04
1016,69	86,96
1016,85	103,34
1017,02	97,20
1017,18	62,38
1017,35	91,05
1017,51	66,48
1017,68	121,77
1017,84	11,18
1018,01	0,94
1018,17	193,45
1018,34	236,46
1018,50	-7,25
1018,67	95,15
1018,84	185,26
1019,00	121,77
1019,17	103,34
1019,33	23,47
1019,50	125,87
1019,66	191,41
1019,83	35,76
1019,99	175,02
1020,16	21,42
1020,32	27,57
1020,49	95,15
1020,65	107,44
1020,82	66,48
1020,98	136,11
1021,15	74,67
1021,31	170,93
1021,48	115,63
1021,64	62,38
1021,81	181,17
1021,97	0,94
1022,14	48,05
1022,30	105,39
1022,47	74,67
1022,63	68,53
1022,79	43,95
1022,96	41,90
1023,12	52,14
1023,29	89,01
1023,45	220,08
1023,62	113,58
1023,78	125,87
1023,95	60,34
1024,11	39,86
1024,28	-13,39
1024,44	82,86
1024,61	74,67
1024,77	76,72
1024,94	70,58
1025,10	35,76
1025,26	-9,30
1025,43	60,34
1025,59	21,42
1025,76	50,10
1025,92	89,01
1026,09	-7,25
1026,25	119,73
1026,42	66,48
1026,58	2,99
1026,74	127,92
1026,91	111,53
1027,07	125,87
1027,24	168,88
1027,40	31,66
1027,57	138,16
1027,73	46,00
1027,90	166,83
1028,06	21,42
1028,22	70,58
1028,39	111,53
1028,55	68,53
1028,72	54,19
1028,88	285,61
1029,04	-5,20
1029,21	172,97
1029,37	101,29
1029,54	105,39
1029,70	58,29
1029,87	-23,63
1030,03	54,19
1030,19	140,21
1030,36	119,73
1030,52	82,86
1030,69	11,18
1030,85	56,24
1031,01	105,39
1031,18	123,82
1031,34	142,25
1031,50	19,38
1031,67	41,90
1031,83	129,97
1032,00	99,25
1032,16	107,44
1032,32	129,97
1032,49	107,44
1032,65	125,87
1032,82	136,11
1032,98	31,66
1033,14	99,25
1033,31	82,86
1033,47	175,02
1033,63	58,29
1033,80	46,00
1033,96	80,82
1034,13	70,58
1034,29	113,58
1034,45	123,82
1034,62	74,67
1034,78	244,65
1034,94	66,48
1035,11	109,49
1035,27	70,58
1035,43	152,49
1035,60	121,77
1035,76	78,77
1035,92	29,62
1036,09	177,07
1036,25	89,01
1036,41	68,53
1036,58	146,35
1036,74	121,77
1036,90	56,24
1037,07	58,29
1037,23	68,53
1037,39	211,89
1037,56	27,57
1037,72	105,39
1037,88	101,29
1038,05	86,96
1038,21	205,74
1038,37	99,25
1038,54	76,72
1038,70	203,69
1038,86	72,62
1039,03	97,20
1039,19	132,01
1039,35	74,67
1039,52	-62,54
1039,68	60,34
1039,84	-5,20
1040,00	146,35
1040,17	48,05
1040,33	62,38
1040,49	84,91
1040,66	64,43
1040,82	103,34
1040,98	168,88
1041,15	60,34
1041,31	29,62
1041,47	48,05
1041,63	27,57
1041,80	148,40
1041,96	164,78
1042,12	-3,15
1042,29	125,87
1042,45	197,55
1042,61	19,38
1042,77	138,16
1042,94	132,01
1043,10	242,60
1043,26	41,90
1043,42	-5,20
1043,59	189,36
1043,75	175,02
1043,91	62,38
1044,07	134,06
1044,24	117,68
1044,40	74,67
>>>>>End Processed Spectral Data<<<<<
