SpectraSuite Data File
++++++++++++++++++++++++++++++++++++
Date: Mon Nov 09 11:27:54 BRST 2020
User: Administrador
Dark Spectrum Present: No
Reference Spectrum Present: No
Number of Sampled Component Spectra: 1
Spectrometers: USB4F02573
Integration Time (usec): 100000 (USB4F02573)
Spectra Averaged: 1 (USB4F02573)
Boxcar Smoothing: 0 (USB4F02573)
Correct for Electrical Dark: Yes (USB4F02573)
Strobe/Lamp Enabled: No (USB4F02573)
Correct for Detector Non-linearity: No (USB4F02573)
Correct for Stray Light: No (USB4F02573)
Number of Pixels in Processed Spectrum: 3648
>>>>>Begin Processed Spectral Data<<<<<
345,22	-119,13
345,44	-119,13
345,66	-119,13
345,88	-145,76
346,10	-92,51
346,32	122,53
346,54	104,09
346,75	93,85
346,97	59,04
347,19	48,80
347,41	93,85
347,63	11,94
347,85	100,00
348,07	65,18
348,29	122,53
348,51	42,65
348,73	9,89
348,95	13,98
349,16	42,65
349,38	13,98
349,60	89,76
349,82	126,62
350,04	75,42
350,26	71,33
350,48	73,37
350,70	67,23
350,92	73,37
351,14	147,10
351,35	153,24
351,57	110,24
351,79	97,95
352,01	18,08
352,23	83,61
352,45	34,46
352,67	48,80
352,89	44,70
353,10	85,66
353,32	134,81
353,54	93,85
353,76	136,86
353,98	91,81
354,20	93,85
354,42	132,77
354,64	40,61
354,85	181,92
355,07	20,13
355,29	75,42
355,51	155,29
355,73	93,85
355,95	-45,41
356,17	108,19
356,38	54,94
356,60	73,37
356,82	138,91
357,04	-2,40
357,26	112,29
357,48	132,77
357,69	87,71
357,91	59,04
358,13	145,05
358,35	108,19
358,57	61,09
358,79	188,06
359,01	71,33
359,22	134,81
359,44	143,01
359,66	112,29
359,88	-61,79
360,10	147,10
360,32	42,65
360,53	83,61
360,75	140,96
360,97	153,24
361,19	93,85
361,41	175,77
361,62	65,18
361,84	73,37
362,06	-10,59
362,28	13,98
362,50	171,68
362,72	102,05
362,93	13,98
363,15	18,08
363,37	65,18
363,59	56,99
363,81	1,70
364,02	147,10
364,24	-18,78
364,46	112,29
364,68	30,37
364,90	169,63
365,11	77,47
365,33	167,58
365,55	28,32
365,77	73,37
365,99	42,65
366,20	212,64
366,42	93,85
366,64	85,66
366,86	13,98
367,07	75,42
367,29	16,03
367,51	24,22
367,73	48,80
367,95	130,72
368,16	97,95
368,38	128,67
368,60	169,63
368,82	116,38
369,03	118,43
369,25	87,71
369,47	42,65
369,69	81,57
369,91	63,13
370,12	-29,02
370,34	48,80
370,56	36,51
370,78	112,29
370,99	155,29
371,21	73,37
371,43	63,13
371,65	71,33
371,86	112,29
372,08	161,44
372,30	38,56
372,52	126,62
372,73	18,08
372,95	50,85
373,17	44,70
373,39	30,37
373,60	102,05
373,82	97,95
374,04	67,23
374,26	22,17
374,47	132,77
374,69	118,43
374,91	159,39
375,12	136,86
375,34	56,99
375,56	126,62
375,78	110,24
375,99	73,37
376,21	102,05
376,43	93,85
376,65	149,15
376,86	38,56
377,08	28,32
377,30	175,77
377,51	24,22
377,73	110,24
377,95	9,89
378,17	122,53
378,38	67,23
378,60	140,96
378,82	161,44
379,03	134,81
379,25	106,14
379,47	147,10
379,68	16,03
379,90	61,09
380,12	93,85
380,34	61,09
380,55	-0,35
380,77	108,19
380,99	77,47
381,20	149,15
381,42	71,33
381,64	-6,50
381,85	59,04
382,07	151,20
382,29	89,76
382,50	65,18
382,72	122,53
382,94	28,32
383,15	116,38
383,37	89,76
383,59	114,33
383,80	40,61
384,02	102,05
384,24	83,61
384,45	161,44
384,67	181,92
384,89	22,17
385,10	52,89
385,32	89,76
385,54	237,21
385,75	59,04
385,97	110,24
386,19	134,81
386,40	112,29
386,62	79,52
386,84	89,76
387,05	83,61
387,27	18,08
387,49	81,57
387,70	132,77
387,92	132,77
388,14	30,37
388,35	36,51
388,57	83,61
388,79	26,27
389,00	52,89
389,22	124,57
389,43	38,56
389,65	120,48
389,87	110,24
390,08	61,09
390,30	220,83
390,52	71,33
390,73	145,05
390,95	1,70
391,17	102,05
391,38	106,14
391,60	179,87
391,81	138,91
392,03	28,32
392,25	48,80
392,46	44,70
392,68	136,86
392,89	120,48
393,11	-33,12
393,33	136,86
393,54	136,86
393,76	85,66
393,98	114,33
394,19	100,00
394,41	59,04
394,62	-37,22
394,84	122,53
395,06	42,65
395,27	102,05
395,49	81,57
395,70	138,91
395,92	54,94
396,13	52,89
396,35	163,48
396,57	100,00
396,78	48,80
397,00	126,62
397,21	83,61
397,43	163,48
397,65	67,23
397,86	143,01
398,08	69,28
398,29	149,15
398,51	-41,31
398,72	108,19
398,94	200,35
399,16	165,53
399,37	48,80
399,59	165,53
399,80	63,13
400,02	81,57
400,23	110,24
400,45	126,62
400,67	120,48
400,88	44,70
401,10	71,33
401,31	16,03
401,53	-18,78
401,74	89,76
401,96	89,76
402,17	100,00
402,39	108,19
402,61	110,24
402,82	22,17
403,04	136,86
403,25	63,13
403,47	71,33
403,68	77,47
403,90	179,87
404,11	89,76
404,33	40,61
404,54	163,48
404,76	48,80
404,97	38,56
405,19	188,06
405,41	149,15
405,62	93,85
405,84	-43,36
406,05	155,29
406,27	50,85
406,48	134,81
406,70	28,32
406,91	34,46
407,13	87,71
407,34	67,23
407,56	186,01
407,77	163,48
407,99	116,38
408,20	229,02
408,42	-16,74
408,63	77,47
408,85	93,85
409,06	71,33
409,28	267,93
409,49	83,61
409,71	67,23
409,92	93,85
410,14	95,90
410,35	343,71
410,57	114,33
410,78	18,08
411,00	120,48
411,21	157,34
411,43	122,53
411,64	48,80
411,86	122,53
412,07	165,53
412,29	138,91
412,50	124,57
412,72	81,57
412,93	179,87
413,15	85,66
413,36	138,91
413,58	171,68
413,79	69,28
414,01	243,36
414,22	147,10
414,43	173,72
414,65	147,10
414,86	63,13
415,08	136,86
415,29	116,38
415,51	16,03
415,72	116,38
415,94	106,14
416,15	108,19
416,37	108,19
416,58	-6,50
416,80	-2,40
417,01	77,47
417,22	97,95
417,44	126,62
417,65	136,86
417,87	42,65
418,08	102,05
418,30	36,51
418,51	173,72
418,73	108,19
418,94	-6,50
419,15	138,91
419,37	134,81
419,58	-22,88
419,80	59,04
420,01	136,86
420,23	56,99
420,44	79,52
420,65	79,52
420,87	161,44
421,08	147,10
421,30	204,44
421,51	63,13
421,73	73,37
421,94	122,53
422,15	42,65
422,37	48,80
422,58	-12,64
422,80	108,19
423,01	87,71
423,22	102,05
423,44	-4,45
423,65	190,11
423,87	97,95
424,08	157,34
424,29	42,65
424,51	18,08
424,72	112,29
424,94	85,66
425,15	79,52
425,36	110,24
425,58	104,09
425,79	106,14
426,01	102,05
426,22	140,96
426,43	69,28
426,65	75,42
426,86	108,19
427,08	140,96
427,29	42,65
427,50	30,37
427,72	108,19
427,93	138,91
428,14	73,37
428,36	136,86
428,57	147,10
428,79	134,81
429,00	171,68
429,21	106,14
429,43	143,01
429,64	120,48
429,85	46,75
430,07	56,99
430,28	122,53
430,49	93,85
430,71	65,18
430,92	77,47
431,14	112,29
431,35	151,20
431,56	190,11
431,78	147,10
431,99	130,72
432,20	147,10
432,42	110,24
432,63	73,37
432,84	13,98
433,06	163,48
433,27	108,19
433,48	177,82
433,70	120,48
433,91	165,53
434,12	22,17
434,34	157,34
434,55	165,53
434,76	97,95
434,98	155,29
435,19	106,14
435,40	116,38
435,62	32,41
435,83	188,06
436,04	118,43
436,26	110,24
436,47	104,09
436,68	56,99
436,90	198,30
437,11	118,43
437,32	46,75
437,54	138,91
437,75	81,57
437,96	163,48
438,17	167,58
438,39	138,91
438,60	188,06
438,81	112,29
439,03	161,44
439,24	104,09
439,45	163,48
439,67	36,51
439,88	149,15
440,09	134,81
440,30	229,02
440,52	50,85
440,73	73,37
440,94	79,52
441,16	108,19
441,37	143,01
441,58	130,72
441,80	93,85
442,01	93,85
442,22	95,90
442,43	116,38
442,65	245,40
442,86	130,72
443,07	59,04
443,28	7,84
443,50	108,19
443,71	132,77
443,92	83,61
444,14	114,33
444,35	110,24
444,56	110,24
444,77	69,28
444,99	120,48
445,20	165,53
445,41	153,24
445,62	194,20
445,84	175,77
446,05	91,81
446,26	183,96
446,47	179,87
446,69	102,05
446,90	42,65
447,11	161,44
447,32	110,24
447,54	122,53
447,75	50,85
447,96	108,19
448,17	110,24
448,39	138,91
448,60	108,19
448,81	198,30
449,02	138,91
449,23	177,82
449,45	132,77
449,66	143,01
449,87	104,09
450,08	147,10
450,30	73,37
450,51	95,90
450,72	89,76
450,93	97,95
451,15	122,53
451,36	97,95
451,57	120,48
451,78	167,58
451,99	114,33
452,21	104,09
452,42	67,23
452,63	186,01
452,84	87,71
453,05	130,72
453,27	183,96
453,48	237,21
453,69	20,13
453,90	190,11
454,11	169,63
454,33	54,94
454,54	147,10
454,75	106,14
454,96	153,24
455,17	108,19
455,39	188,06
455,60	61,09
455,81	128,67
456,02	206,49
456,23	122,53
456,45	163,48
456,66	181,92
456,87	116,38
457,08	198,30
457,29	204,44
457,50	46,75
457,72	179,87
457,93	56,99
458,14	147,10
458,35	208,54
458,56	214,68
458,77	93,85
458,99	50,85
459,20	126,62
459,41	81,57
459,62	93,85
459,83	130,72
460,04	165,53
460,26	149,15
460,47	136,86
460,68	93,85
460,89	106,14
461,10	143,01
461,31	122,53
461,52	79,52
461,74	206,49
461,95	20,13
462,16	112,29
462,37	83,61
462,58	145,05
462,79	229,02
463,00	122,53
463,22	214,68
463,43	155,29
463,64	161,44
463,85	153,24
464,06	112,29
464,27	102,05
464,48	110,24
464,70	138,91
464,91	114,33
465,12	149,15
465,33	177,82
465,54	274,08
465,75	128,67
465,96	206,49
466,17	145,05
466,38	188,06
466,60	110,24
466,81	112,29
467,02	169,63
467,23	159,39
467,44	138,91
467,65	155,29
467,86	183,96
468,07	118,43
468,28	165,53
468,50	79,52
468,71	231,07
468,92	110,24
469,13	118,43
469,34	149,15
469,55	188,06
469,76	44,70
469,97	153,24
470,18	81,57
470,39	147,10
470,60	169,63
470,82	186,01
471,03	91,81
471,24	118,43
471,45	120,48
471,66	108,19
471,87	97,95
472,08	110,24
472,29	163,48
472,50	132,77
472,71	87,71
472,92	188,06
473,13	157,34
473,34	140,96
473,55	132,77
473,77	153,24
473,98	143,01
474,19	216,73
474,40	73,37
474,61	143,01
474,82	38,56
475,03	89,76
475,24	36,51
475,45	171,68
475,66	161,44
475,87	114,33
476,08	134,81
476,29	179,87
476,50	214,68
476,71	179,87
476,92	167,58
477,13	151,20
477,34	128,67
477,55	106,14
477,76	173,72
477,97	93,85
478,18	126,62
478,40	75,42
478,61	169,63
478,82	32,41
479,03	120,48
479,24	218,78
479,45	153,24
479,66	288,41
479,87	155,29
480,08	132,77
480,29	196,25
480,50	179,87
480,71	169,63
480,92	190,11
481,13	102,05
481,34	100,00
481,55	67,23
481,76	91,81
481,97	165,53
482,18	198,30
482,39	56,99
482,60	169,63
482,81	130,72
483,02	153,24
483,23	218,78
483,44	110,24
483,65	106,14
483,86	196,25
484,07	224,92
484,28	188,06
484,49	134,81
484,70	161,44
484,91	89,76
485,12	106,14
485,33	54,94
485,54	143,01
485,75	120,48
485,96	167,58
486,17	93,85
486,38	120,48
486,59	179,87
486,80	183,96
487,01	93,85
487,21	118,43
487,42	95,90
487,63	247,45
487,84	83,61
488,05	132,77
488,26	329,37
488,47	161,44
488,68	118,43
488,89	206,49
489,10	177,82
489,31	114,33
489,52	112,29
489,73	183,96
489,94	267,93
490,15	112,29
490,36	173,72
490,57	161,44
490,78	65,18
490,99	167,58
491,20	91,81
491,41	110,24
491,61	163,48
491,82	159,39
492,03	171,68
492,24	214,68
492,45	52,89
492,66	157,34
492,87	67,23
493,08	114,33
493,29	36,51
493,50	128,67
493,71	161,44
493,92	192,16
494,13	126,62
494,34	42,65
494,54	177,82
494,75	112,29
494,96	233,12
495,17	196,25
495,38	181,92
495,59	175,77
495,80	198,30
496,01	222,88
496,22	186,01
496,43	202,40
496,64	188,06
496,84	67,23
497,05	130,72
497,26	188,06
497,47	147,10
497,68	165,53
497,89	102,05
498,10	222,88
498,31	323,23
498,52	214,68
498,72	210,59
498,93	165,53
499,14	126,62
499,35	81,57
499,56	69,28
499,77	122,53
499,98	190,11
500,19	175,77
500,40	114,33
500,60	63,13
500,81	261,79
501,02	126,62
501,23	102,05
501,44	100,00
501,65	140,96
501,86	147,10
502,06	149,15
502,27	157,34
502,48	151,20
502,69	218,78
502,90	237,21
503,11	106,14
503,32	181,92
503,53	198,30
503,73	149,15
503,94	163,48
504,15	298,65
504,36	163,48
504,57	153,24
504,78	52,89
504,98	143,01
505,19	126,62
505,40	171,68
505,61	112,29
505,82	122,53
506,03	284,31
506,23	81,57
506,44	138,91
506,65	202,40
506,86	212,64
507,07	220,83
507,28	202,40
507,48	159,39
507,69	233,12
507,90	161,44
508,11	52,89
508,32	163,48
508,53	157,34
508,73	153,24
508,94	208,54
509,15	204,44
509,36	122,53
509,57	183,96
509,77	132,77
509,98	61,09
510,19	163,48
510,40	188,06
510,61	126,62
510,81	214,68
511,02	300,70
511,23	177,82
511,44	181,92
511,65	85,66
511,85	200,35
512,06	104,09
512,27	136,86
512,48	196,25
512,69	167,58
512,89	61,09
513,10	202,40
513,31	206,49
513,52	132,77
513,73	159,39
513,93	261,79
514,14	317,08
514,35	255,64
514,56	224,92
514,76	122,53
514,97	183,96
515,18	292,51
515,39	175,77
515,60	220,83
515,80	204,44
516,01	237,21
516,22	292,51
516,43	95,90
516,63	239,26
516,84	368,28
517,05	206,49
517,26	171,68
517,46	214,68
517,67	312,99
517,88	87,71
518,09	202,40
518,29	210,59
518,50	269,98
518,71	181,92
518,92	259,74
519,12	245,40
519,33	247,45
519,54	235,16
519,75	231,07
519,95	165,53
520,16	261,79
520,37	204,44
520,57	274,08
520,78	315,03
520,99	243,36
521,20	175,77
521,40	202,40
521,61	280,22
521,82	222,88
522,03	155,29
522,23	272,03
522,44	204,44
522,65	165,53
522,85	243,36
523,06	157,34
523,27	134,81
523,48	249,50
523,68	192,16
523,89	253,60
524,10	233,12
524,30	138,91
524,51	253,60
524,72	212,64
524,93	231,07
525,13	200,35
525,34	304,79
525,55	306,84
525,75	319,13
525,96	186,01
526,17	186,01
526,37	319,13
526,58	267,93
526,79	206,49
526,99	138,91
527,20	298,65
527,41	226,97
527,62	233,12
527,82	259,74
528,03	183,96
528,24	265,88
528,44	280,22
528,65	136,86
528,86	192,16
529,06	224,92
529,27	175,77
529,48	186,01
529,68	327,32
529,89	331,42
530,10	284,31
530,30	269,98
530,51	165,53
530,72	241,31
530,92	206,49
531,13	317,08
531,34	312,99
531,54	267,93
531,75	286,36
531,96	376,47
532,16	175,77
532,37	331,42
532,57	286,36
532,78	251,55
532,99	233,12
533,19	327,32
533,40	300,70
533,61	296,60
533,81	267,93
534,02	341,66
534,23	280,22
534,43	255,64
534,64	370,33
534,84	312,99
535,05	278,17
535,26	272,03
535,46	319,13
535,67	362,14
535,88	251,55
536,08	241,31
536,29	312,99
536,49	261,79
536,70	343,71
536,91	339,61
537,11	306,84
537,32	325,27
537,53	335,51
537,73	374,43
537,94	276,12
538,14	308,89
538,35	200,35
538,56	341,66
538,76	331,42
538,97	360,09
539,17	282,27
539,38	435,86
539,59	378,52
539,79	343,71
540,00	392,86
540,20	403,10
540,41	355,99
540,62	663,19
540,82	366,23
541,03	380,57
541,23	372,38
541,44	312,99
541,64	407,19
541,85	319,13
542,06	347,80
542,26	341,66
542,47	339,61
542,67	370,33
542,88	431,77
543,08	405,15
543,29	396,95
543,50	468,63
543,70	482,97
543,91	364,19
544,11	444,06
544,32	423,58
544,52	407,19
544,73	317,08
544,94	409,24
545,14	431,77
545,35	454,30
545,55	407,19
545,76	523,93
545,96	464,54
546,17	437,91
546,37	452,25
546,58	540,31
546,78	427,67
546,99	380,57
547,20	505,50
547,40	497,30
547,61	460,44
547,81	466,58
548,02	571,03
548,22	456,34
548,43	636,57
548,63	421,53
548,84	556,69
549,04	538,26
549,25	476,82
549,45	478,87
549,66	491,16
549,86	573,08
550,07	448,15
550,27	472,73
550,48	577,17
550,69	618,13
550,89	646,81
551,10	460,44
551,30	646,81
551,51	497,30
551,71	583,32
551,92	638,61
552,12	577,17
552,33	511,64
552,53	552,60
552,74	646,81
552,94	622,23
553,15	616,09
553,35	769,68
553,56	648,85
553,76	741,01
553,97	685,72
554,17	741,01
554,38	751,25
554,58	716,44
554,79	583,32
554,99	652,95
555,19	775,83
555,40	874,13
555,60	837,27
555,81	808,59
556,01	808,59
556,22	913,04
556,42	865,94
556,63	865,94
556,83	921,23
557,04	927,38
557,24	1074,83
557,45	1027,73
557,65	976,53
557,86	956,05
558,06	1089,17
558,27	980,62
558,47	1056,40
558,67	1177,23
558,88	1158,80
559,08	1244,81
559,29	1119,89
559,49	1361,55
559,70	1336,97
559,90	1359,50
560,11	1359,50
560,31	1418,89
560,52	1468,04
560,72	1449,61
560,92	1533,58
561,13	1560,20
561,33	1617,54
561,54	1742,47
561,74	1808,00
561,95	1724,04
562,15	1947,27
562,35	1889,92
562,56	2053,76
562,76	1937,03
562,97	2092,67
563,17	2182,78
563,38	2268,80
563,58	2342,52
563,78	2279,04
563,99	2461,31
564,19	2516,60
564,40	2776,69
564,60	2852,47
564,80	2975,35
565,01	3018,35
565,21	3079,79
565,42	3407,47
565,62	3294,83
565,83	3438,19
566,03	3604,07
566,23	3659,37
566,44	3800,68
566,64	4124,26
566,85	4058,72
567,05	4263,52
567,25	4308,57
567,46	4679,26
567,66	4679,26
567,86	5037,65
568,07	4886,10
568,27	5275,21
568,48	5336,65
568,68	5688,90
568,88	5682,76
569,09	6102,59
569,29	6090,31
569,50	6264,38
569,70	6460,99
569,90	6823,48
570,11	6958,65
570,31	6854,20
570,51	7372,33
570,72	7824,94
570,92	7867,94
571,13	8273,44
571,33	8177,19
571,53	8916,50
571,74	8746,52
571,94	9152,02
572,14	9242,13
572,35	9496,08
572,55	9731,59
572,75	10083,85
572,96	10464,77
573,16	10929,66
573,36	11050,49
573,57	11376,11
573,77	11322,87
573,97	11920,87
574,18	12023,27
574,38	12537,31
574,59	12764,64
574,79	13088,22
574,99	13120,98
575,20	13837,77
575,40	13743,57
575,60	14779,84
575,81	14550,47
576,01	15283,64
576,21	15371,70
576,42	15723,95
576,62	16002,48
576,82	16520,61
577,02	16766,37
577,23	17374,61
577,43	17696,15
577,63	18363,78
577,84	18582,92
578,04	19004,80
578,24	19195,26
578,45	20028,78
578,65	20186,48
578,85	20727,14
579,06	20921,70
579,26	22056,27
579,46	22398,28
579,67	23037,25
579,87	23364,92
580,07	24196,40
580,27	24188,21
580,48	25199,90
580,68	25705,75
580,88	26805,51
581,09	27059,46
581,29	27809,01
581,49	28044,53
581,69	28988,64
581,90	29463,77
582,10	30244,05
582,30	31128,77
582,51	32050,36
582,71	32429,23
582,91	33936,54
583,11	34079,90
583,32	35615,87
583,52	35617,92
583,72	36760,69
583,93	36979,82
584,13	38958,16
584,33	39396,42
584,53	40715,31
584,74	41452,58
584,94	42759,19
585,14	42642,45
585,34	43990,02
585,55	44534,78
585,75	46343,13
585,95	46670,81
586,15	47930,31
586,36	48817,08
586,56	49363,89
586,76	49767,34
586,96	51073,94
587,17	51243,92
587,37	53265,27
587,57	53236,59
587,77	54485,86
587,98	54803,29
588,18	55212,88
588,38	55575,38
588,58	56662,85
588,79	56605,50
588,99	57174,84
589,19	57434,93
589,39	57645,87
589,60	57455,41
589,80	58063,66
590,00	58366,76
590,20	58456,87
590,40	57742,13
590,61	58356,52
590,81	58317,61
591,01	57918,25
591,21	56986,43
591,42	56707,90
591,62	55903,05
591,82	55993,16
592,02	55057,24
592,22	54852,44
592,43	53166,96
592,63	53695,34
592,83	52349,82
593,03	51929,99
593,23	50654,11
593,44	50523,04
593,64	49028,02
593,84	47778,76
594,04	47317,97
594,24	45458,41
594,45	45063,15
594,65	43801,60
594,85	42845,20
595,05	41704,48
595,25	40578,10
595,46	39812,16
595,66	38397,01
595,86	37882,97
596,06	36596,85
596,26	35658,88
596,46	34385,04
596,67	33526,94
596,87	32109,75
597,07	31444,16
597,27	30151,89
597,47	29986,01
597,67	28345,58
597,88	27989,24
598,08	26965,25
598,28	26395,92
598,48	24968,48
598,68	24573,22
598,88	23889,20
599,09	23328,06
599,29	22392,14
599,49	21638,49
599,69	21126,49
599,89	20186,48
600,09	19615,09
600,30	19101,05
600,50	18527,62
600,70	18322,82
600,90	17427,86
601,10	17022,36
601,30	16412,07
601,50	15959,47
601,71	15203,77
601,91	14939,58
602,11	14460,35
602,31	13979,08
602,51	13503,95
602,71	13049,30
602,91	12588,51
603,11	12410,34
603,32	11871,72
603,52	11757,04
603,72	11208,18
603,92	10827,26
604,12	10532,35
604,32	10184,20
604,52	9944,58
604,72	9635,34
604,93	9328,14
605,13	9184,79
605,33	8631,84
605,53	8496,67
605,73	7949,86
605,93	8162,85
606,13	7843,37
606,33	7415,34
606,53	7224,88
606,74	7036,47
606,94	6895,16
607,14	6817,34
607,34	6516,28
607,54	6319,68
607,74	6225,47
607,94	6096,45
608,14	5766,73
608,34	5727,82
608,54	5473,87
608,74	5334,61
608,95	5150,29
609,15	5234,26
609,35	4867,67
609,55	4654,68
609,75	4484,70
609,95	4568,67
610,15	4324,96
610,35	4152,93
610,55	4044,39
610,75	4005,47
610,95	3788,39
611,15	3796,58
611,35	3669,61
611,55	3542,63
611,76	3585,64
611,96	3458,67
612,16	3260,01
612,36	3339,88
612,56	3266,16
612,76	3130,99
612,96	2985,59
613,16	3083,89
613,36	2864,76
613,56	2713,21
613,76	2580,09
613,96	2594,42
614,16	2590,33
614,36	2315,90
614,56	2485,88
614,76	2360,96
614,96	2350,72
615,16	2186,88
615,36	2127,49
615,56	2113,15
615,76	2041,47
615,97	2096,77
616,17	1943,17
616,37	2059,90
616,57	1943,17
616,77	1742,47
616,97	1859,20
617,17	1750,66
617,37	1732,23
617,57	1691,27
617,77	1640,07
617,97	1656,45
618,17	1584,78
618,37	1640,07
618,57	1584,78
618,77	1502,86
618,97	1425,03
619,17	1412,75
619,37	1441,42
619,57	1441,42
619,77	1336,97
619,97	1273,48
620,17	1281,68
620,37	1195,66
620,57	1279,63
620,77	1195,66
620,97	1138,32
621,17	1089,17
621,37	1074,83
621,57	1060,50
621,77	978,58
621,97	1162,89
622,17	980,62
622,37	1105,55
622,57	1042,06
622,77	1076,88
622,97	927,38
623,17	865,94
623,37	1066,64
623,57	1046,16
623,77	929,43
623,97	845,46
624,16	872,08
624,36	927,38
624,56	812,69
624,76	822,93
624,96	751,25
625,16	806,55
625,36	726,68
625,56	663,19
625,76	695,96
625,96	788,12
626,16	724,63
626,36	741,01
626,56	757,40
626,76	683,67
626,96	695,96
627,16	728,72
627,36	626,33
627,56	704,15
627,76	657,05
627,96	601,75
628,16	761,49
628,35	698,00
628,55	593,56
628,75	646,81
628,95	454,30
629,15	652,95
629,35	532,12
629,55	591,51
629,75	626,33
629,95	622,23
630,15	573,08
630,35	540,31
630,55	573,08
630,75	542,36
630,95	614,04
631,14	521,88
631,34	493,21
631,54	513,69
631,74	534,17
631,94	493,21
632,14	282,27
632,34	538,26
632,54	491,16
632,74	552,60
632,94	470,68
633,14	376,47
633,33	413,34
633,53	419,48
633,73	597,65
633,93	517,78
634,13	388,76
634,33	482,97
634,53	409,24
634,73	382,62
634,93	349,85
635,12	372,38
635,32	388,76
635,52	409,24
635,72	405,15
635,92	370,33
636,12	509,59
636,32	409,24
636,52	437,91
636,71	372,38
636,91	427,67
637,11	448,15
637,31	323,23
637,51	421,53
637,71	489,11
637,91	366,23
638,11	312,99
638,30	335,51
638,50	304,79
638,70	450,20
638,90	360,09
639,10	351,90
639,30	360,09
639,50	388,76
639,69	427,67
639,89	302,75
640,09	265,88
640,29	290,46
640,49	302,75
640,69	302,75
640,88	294,55
641,08	323,23
641,28	319,13
641,48	304,79
641,68	276,12
641,88	343,71
642,07	206,49
642,27	300,70
642,47	360,09
642,67	296,60
642,87	351,90
643,07	290,46
643,26	286,36
643,46	405,15
643,66	280,22
643,86	386,71
644,06	288,41
644,26	341,66
644,45	296,60
644,65	292,51
644,85	317,08
645,05	306,84
645,25	331,42
645,44	261,79
645,64	302,75
645,84	321,18
646,04	222,88
646,24	351,90
646,43	362,14
646,63	366,23
646,83	333,47
647,03	298,65
647,23	235,16
647,42	278,17
647,62	339,61
647,82	241,31
648,02	278,17
648,22	329,37
648,41	282,27
648,61	274,08
648,81	298,65
649,01	366,23
649,20	343,71
649,40	214,68
649,60	384,67
649,80	294,55
650,00	327,32
650,19	173,72
650,39	302,75
650,59	284,31
650,79	257,69
650,98	286,36
651,18	251,55
651,38	278,17
651,58	269,98
651,77	263,84
651,97	233,12
652,17	280,22
652,37	296,60
652,56	237,21
652,76	310,94
652,96	294,55
653,16	292,51
653,35	122,53
653,55	261,79
653,75	212,64
653,95	329,37
654,14	257,69
654,34	214,68
654,54	278,17
654,74	317,08
654,93	206,49
655,13	194,20
655,33	177,82
655,52	224,92
655,72	317,08
655,92	210,59
656,12	208,54
656,31	183,96
656,51	255,64
656,71	194,20
656,91	296,60
657,10	149,15
657,30	222,88
657,50	239,26
657,69	296,60
657,89	233,12
658,09	294,55
658,29	267,93
658,48	241,31
658,68	192,16
658,88	272,03
659,07	155,29
659,27	208,54
659,47	214,68
659,66	274,08
659,86	202,40
660,06	220,83
660,26	188,06
660,45	308,89
660,65	331,42
660,85	186,01
661,04	239,26
661,24	290,46
661,44	171,68
661,63	167,58
661,83	331,42
662,03	282,27
662,22	226,97
662,42	140,96
662,62	214,68
662,81	190,11
663,01	253,60
663,21	261,79
663,40	134,81
663,60	284,31
663,80	216,73
663,99	353,95
664,19	167,58
664,39	261,79
664,58	214,68
664,78	269,98
664,98	183,96
665,17	241,31
665,37	282,27
665,57	257,69
665,76	167,58
665,96	218,78
666,16	198,30
666,35	286,36
666,55	290,46
666,74	212,64
666,94	335,51
667,14	233,12
667,33	257,69
667,53	269,98
667,73	183,96
667,92	302,75
668,12	169,63
668,32	194,20
668,51	177,82
668,71	175,77
668,90	206,49
669,10	186,01
669,30	173,72
669,49	237,21
669,69	269,98
669,89	204,44
670,08	104,09
670,28	474,78
670,47	255,64
670,67	278,17
670,87	132,77
671,06	249,50
671,26	204,44
671,45	179,87
671,65	308,89
671,85	134,81
672,04	165,53
672,24	200,35
672,43	157,34
672,63	206,49
672,83	163,48
673,02	163,48
673,22	149,15
673,41	216,73
673,61	208,54
673,81	143,01
674,00	312,99
674,20	186,01
674,39	179,87
674,59	226,97
674,78	161,44
674,98	276,12
675,18	259,74
675,37	161,44
675,57	218,78
675,76	265,88
675,96	243,36
676,15	194,20
676,35	200,35
676,55	161,44
676,74	233,12
676,94	167,58
677,13	93,85
677,33	214,68
677,52	208,54
677,72	155,29
677,91	34,46
678,11	118,43
678,31	179,87
678,50	210,59
678,70	151,20
678,89	214,68
679,09	159,39
679,28	116,38
679,48	159,39
679,67	204,44
679,87	161,44
680,06	335,51
680,26	272,03
680,46	218,78
680,65	206,49
680,85	171,68
681,04	200,35
681,24	190,11
681,43	116,38
681,63	147,10
681,82	212,64
682,02	120,48
682,21	188,06
682,41	67,23
682,60	118,43
682,80	122,53
682,99	214,68
683,19	159,39
683,38	249,50
683,58	194,20
683,77	169,63
683,97	173,72
684,16	302,75
684,36	97,95
684,55	97,95
684,75	138,91
684,94	122,53
685,14	241,31
685,33	149,15
685,53	116,38
685,72	165,53
685,92	255,64
686,11	126,62
686,31	165,53
686,50	292,51
686,70	169,63
686,89	140,96
687,09	138,91
687,28	140,96
687,48	108,19
687,67	206,49
687,87	198,30
688,06	159,39
688,26	239,26
688,45	143,01
688,65	81,57
688,84	224,92
689,03	114,33
689,23	126,62
689,42	231,07
689,62	122,53
689,81	237,21
690,01	155,29
690,20	210,59
690,40	169,63
690,59	288,41
690,79	93,85
690,98	224,92
691,17	118,43
691,37	188,06
691,56	173,72
691,76	345,75
691,95	224,92
692,15	120,48
692,34	257,69
692,54	143,01
692,73	163,48
692,92	229,02
693,12	159,39
693,31	153,24
693,51	202,40
693,70	163,48
693,90	165,53
694,09	159,39
694,28	175,77
694,48	243,36
694,67	196,25
694,87	237,21
695,06	169,63
695,26	165,53
695,45	140,96
695,64	190,11
695,84	231,07
696,03	67,23
696,23	247,45
696,42	106,14
696,61	124,57
696,81	138,91
697,00	157,34
697,20	69,28
697,39	186,01
697,58	106,14
697,78	204,44
697,97	206,49
698,17	177,82
698,36	253,60
698,55	22,17
698,75	255,64
698,94	147,10
699,14	118,43
699,33	171,68
699,52	161,44
699,72	169,63
699,91	196,25
700,10	134,81
700,30	120,48
700,49	118,43
700,69	214,68
700,88	224,92
701,07	159,39
701,27	143,01
701,46	263,84
701,65	163,48
701,85	220,83
702,04	251,55
702,23	147,10
702,43	138,91
702,62	143,01
702,82	153,24
703,01	315,03
703,20	202,40
703,40	186,01
703,59	196,25
703,78	130,72
703,98	196,25
704,17	151,20
704,36	157,34
704,56	218,78
704,75	95,90
704,94	157,34
705,14	224,92
705,33	194,20
705,52	149,15
705,72	83,61
705,91	229,02
706,10	153,24
706,30	196,25
706,49	239,26
706,68	161,44
706,88	165,53
707,07	194,20
707,26	87,71
707,46	222,88
707,65	274,08
707,84	130,72
708,04	122,53
708,23	261,79
708,42	245,40
708,62	163,48
708,81	143,01
709,00	233,12
709,19	247,45
709,39	188,06
709,58	239,26
709,77	77,47
709,97	208,54
710,16	149,15
710,35	239,26
710,55	167,58
710,74	269,98
710,93	159,39
711,12	212,64
711,32	183,96
711,51	310,94
711,70	214,68
711,90	226,97
712,09	181,92
712,28	175,77
712,47	186,01
712,67	157,34
712,86	169,63
713,05	253,60
713,24	175,77
713,44	140,96
713,63	192,16
713,82	163,48
714,02	237,21
714,21	237,21
714,40	153,24
714,59	196,25
714,79	157,34
714,98	192,16
715,17	280,22
715,36	102,05
715,56	239,26
715,75	136,86
715,94	231,07
716,13	212,64
716,33	165,53
716,52	177,82
716,71	157,34
716,90	159,39
717,10	56,99
717,29	159,39
717,48	267,93
717,67	278,17
717,87	208,54
718,06	169,63
718,25	224,92
718,44	280,22
718,63	210,59
718,83	147,10
719,02	208,54
719,21	263,84
719,40	138,91
719,60	120,48
719,79	204,44
719,98	239,26
720,17	134,81
720,36	247,45
720,56	202,40
720,75	77,47
720,94	179,87
721,13	233,12
721,33	226,97
721,52	130,72
721,71	253,60
721,90	286,36
722,09	208,54
722,29	173,72
722,48	157,34
722,67	149,15
722,86	353,95
723,05	165,53
723,24	155,29
723,44	171,68
723,63	194,20
723,82	204,44
724,01	179,87
724,20	179,87
724,40	155,29
724,59	177,82
724,78	140,96
724,97	149,15
725,16	159,39
725,35	222,88
725,55	218,78
725,74	194,20
725,93	243,36
726,12	253,60
726,31	278,17
726,51	177,82
726,70	169,63
726,89	247,45
727,08	153,24
727,27	245,40
727,46	241,31
727,65	183,96
727,85	183,96
728,04	196,25
728,23	169,63
728,42	110,24
728,61	218,78
728,80	190,11
729,00	218,78
729,19	253,60
729,38	298,65
729,57	173,72
729,76	126,62
729,95	278,17
730,14	208,54
730,33	151,20
730,53	102,05
730,72	188,06
730,91	214,68
731,10	222,88
731,29	306,84
731,48	304,79
731,67	100,00
731,86	122,53
732,06	159,39
732,25	188,06
732,44	249,50
732,63	267,93
732,82	317,08
733,01	216,73
733,20	140,96
733,39	175,77
733,59	198,30
733,78	208,54
733,97	300,70
734,16	202,40
734,35	198,30
734,54	220,83
734,73	159,39
734,92	192,16
735,11	208,54
735,30	218,78
735,49	259,74
735,69	282,27
735,88	220,83
736,07	294,55
736,26	169,63
736,45	212,64
736,64	134,81
736,83	249,50
737,02	247,45
737,21	202,40
737,40	179,87
737,59	448,15
737,78	122,53
737,98	188,06
738,17	179,87
738,36	345,75
738,55	177,82
738,74	239,26
738,93	214,68
739,12	130,72
739,31	167,58
739,50	212,64
739,69	296,60
739,88	204,44
740,07	269,98
740,26	253,60
740,45	312,99
740,64	272,03
740,83	255,64
741,02	140,96
741,22	251,55
741,41	239,26
741,60	257,69
741,79	149,15
741,98	173,72
742,17	231,07
742,36	241,31
742,55	198,30
742,74	403,10
742,93	245,40
743,12	224,92
743,31	155,29
743,50	245,40
743,69	224,92
743,88	200,35
744,07	188,06
744,26	321,18
744,45	206,49
744,64	284,31
744,83	296,60
745,02	198,30
745,21	183,96
745,40	208,54
745,59	269,98
745,78	235,16
745,97	200,35
746,16	265,88
746,35	345,75
746,54	118,43
746,73	204,44
746,92	235,16
747,11	241,31
747,30	249,50
747,49	204,44
747,68	200,35
747,87	163,48
748,06	249,50
748,25	261,79
748,44	269,98
748,63	274,08
748,82	183,96
749,01	128,67
749,20	171,68
749,39	155,29
749,58	290,46
749,77	233,12
749,96	210,59
750,15	202,40
750,34	149,15
750,53	298,65
750,72	257,69
750,91	204,44
751,10	355,99
751,29	200,35
751,48	106,14
751,67	155,29
751,86	177,82
752,04	237,21
752,23	229,02
752,42	188,06
752,61	163,48
752,80	245,40
752,99	179,87
753,18	188,06
753,37	218,78
753,56	95,90
753,75	140,96
753,94	114,33
754,13	237,21
754,32	192,16
754,51	220,83
754,70	267,93
754,89	259,74
755,08	251,55
755,27	140,96
755,45	190,11
755,64	206,49
755,83	310,94
756,02	222,88
756,21	132,77
756,40	259,74
756,59	233,12
756,78	159,39
756,97	173,72
757,16	208,54
757,35	243,36
757,54	188,06
757,72	229,02
757,91	112,29
758,10	259,74
758,29	132,77
758,48	204,44
758,67	116,38
758,86	208,54
759,05	210,59
759,24	183,96
759,43	249,50
759,61	73,37
759,80	206,49
759,99	278,17
760,18	138,91
760,37	126,62
760,56	122,53
760,75	216,73
760,94	231,07
761,13	192,16
761,31	206,49
761,50	237,21
761,69	226,97
761,88	106,14
762,07	110,24
762,26	212,64
762,45	161,44
762,64	183,96
762,82	165,53
763,01	245,40
763,20	143,01
763,39	243,36
763,58	173,72
763,77	155,29
763,96	104,09
764,14	112,29
764,33	204,44
764,52	177,82
764,71	220,83
764,90	200,35
765,09	177,82
765,27	247,45
765,46	194,20
765,65	165,53
765,84	136,86
766,03	173,72
766,22	134,81
766,41	130,72
766,59	177,82
766,78	276,12
766,97	218,78
767,16	261,79
767,35	173,72
767,54	218,78
767,72	214,68
767,91	226,97
768,10	52,89
768,29	112,29
768,48	212,64
768,66	179,87
768,85	247,45
769,04	229,02
769,23	212,64
769,42	214,68
769,61	235,16
769,79	192,16
769,98	231,07
770,17	114,33
770,36	231,07
770,55	126,62
770,73	237,21
770,92	241,31
771,11	177,82
771,30	165,53
771,49	171,68
771,67	284,31
771,86	173,72
772,05	181,92
772,24	183,96
772,42	171,68
772,61	169,63
772,80	179,87
772,99	159,39
773,18	312,99
773,36	114,33
773,55	183,96
773,74	171,68
773,93	183,96
774,11	136,86
774,30	241,31
774,49	175,77
774,68	269,98
774,87	208,54
775,05	183,96
775,24	136,86
775,43	325,27
775,62	204,44
775,80	188,06
775,99	186,01
776,18	255,64
776,37	143,01
776,55	274,08
776,74	179,87
776,93	216,73
777,12	210,59
777,30	155,29
777,49	118,43
777,68	202,40
777,87	218,78
778,05	181,92
778,24	208,54
778,43	257,69
778,62	159,39
778,80	245,40
778,99	243,36
779,18	218,78
779,36	308,89
779,55	122,53
779,74	200,35
779,93	274,08
780,11	143,01
780,30	202,40
780,49	235,16
780,68	173,72
780,86	292,51
781,05	190,11
781,24	257,69
781,42	181,92
781,61	194,20
781,80	155,29
781,98	214,68
782,17	192,16
782,36	138,91
782,55	208,54
782,73	206,49
782,92	296,60
783,11	149,15
783,29	183,96
783,48	188,06
783,67	253,60
783,85	159,39
784,04	196,25
784,23	261,79
784,42	249,50
784,60	188,06
784,79	380,57
784,98	214,68
785,16	229,02
785,35	106,14
785,54	208,54
785,72	257,69
785,91	222,88
786,10	165,53
786,28	224,92
786,47	216,73
786,66	169,63
786,84	226,97
787,03	263,84
787,22	220,83
787,40	218,78
787,59	212,64
787,78	226,97
787,96	208,54
788,15	249,50
788,34	188,06
788,52	220,83
788,71	188,06
788,89	171,68
789,08	161,44
789,27	351,90
789,45	220,83
789,64	153,24
789,83	122,53
790,01	153,24
790,20	239,26
790,39	186,01
790,57	204,44
790,76	122,53
790,95	126,62
791,13	210,59
791,32	153,24
791,50	243,36
791,69	196,25
791,88	298,65
792,06	296,60
792,25	222,88
792,43	177,82
792,62	237,21
792,81	165,53
792,99	247,45
793,18	167,58
793,37	143,01
793,55	169,63
793,74	233,12
793,92	151,20
794,11	229,02
794,30	153,24
794,48	159,39
794,67	157,34
794,85	159,39
795,04	149,15
795,23	212,64
795,41	149,15
795,60	243,36
795,78	183,96
795,97	317,08
796,15	269,98
796,34	204,44
796,53	134,81
796,71	253,60
796,90	226,97
797,08	108,19
797,27	280,22
797,46	204,44
797,64	97,95
797,83	192,16
798,01	163,48
798,20	255,64
798,38	157,34
798,57	44,70
798,76	75,42
798,94	85,66
799,13	157,34
799,31	163,48
799,50	85,66
799,68	95,90
799,87	91,81
800,05	116,38
800,24	147,10
800,43	175,77
800,61	323,23
800,80	226,97
800,98	126,62
801,17	102,05
801,35	147,10
801,54	190,11
801,72	194,20
801,91	212,64
802,09	214,68
802,28	167,58
802,46	229,02
802,65	253,60
802,84	239,26
803,02	245,40
803,21	229,02
803,39	77,47
803,58	282,27
803,76	186,01
803,95	251,55
804,13	159,39
804,32	149,15
804,50	296,60
804,69	257,69
804,87	179,87
805,06	233,12
805,24	282,27
805,43	210,59
805,61	155,29
805,80	163,48
805,98	198,30
806,17	151,20
806,35	50,85
806,54	140,96
806,72	102,05
806,91	140,96
807,09	100,00
807,28	216,73
807,46	231,07
807,65	216,73
807,83	118,43
808,02	179,87
808,20	130,72
808,39	138,91
808,57	183,96
808,76	181,92
808,94	231,07
809,13	91,81
809,31	179,87
809,49	224,92
809,68	100,00
809,86	169,63
810,05	159,39
810,23	282,27
810,42	255,64
810,60	159,39
810,79	149,15
810,97	138,91
811,16	110,24
811,34	198,30
811,53	208,54
811,71	153,24
811,89	272,03
812,08	104,09
812,26	222,88
812,45	130,72
812,63	95,90
812,82	165,53
813,00	118,43
813,19	79,52
813,37	181,92
813,55	159,39
813,74	116,38
813,92	231,07
814,11	159,39
814,29	32,41
814,48	194,20
814,66	188,06
814,84	179,87
815,03	169,63
815,21	210,59
815,40	165,53
815,58	159,39
815,77	257,69
815,95	138,91
816,13	165,53
816,32	306,84
816,50	210,59
816,69	132,77
816,87	87,71
817,05	147,10
817,24	177,82
817,42	97,95
817,61	114,33
817,79	202,40
817,97	128,67
818,16	13,98
818,34	208,54
818,53	159,39
818,71	231,07
818,89	149,15
819,08	194,20
819,26	177,82
819,45	171,68
819,63	196,25
819,81	226,97
820,00	253,60
820,18	89,76
820,36	175,77
820,55	128,67
820,73	104,09
820,92	122,53
821,10	126,62
821,28	136,86
821,47	157,34
821,65	157,34
821,83	269,98
822,02	114,33
822,20	91,81
822,39	75,42
822,57	136,86
822,75	97,95
822,94	186,01
823,12	77,47
823,30	104,09
823,49	229,02
823,67	71,33
823,85	220,83
824,04	32,41
824,22	134,81
824,40	208,54
824,59	145,05
824,77	165,53
824,95	112,29
825,14	231,07
825,32	204,44
825,50	214,68
825,69	130,72
825,87	216,73
826,05	159,39
826,24	212,64
826,42	171,68
826,60	159,39
826,79	190,11
826,97	54,94
827,15	122,53
827,34	138,91
827,52	93,85
827,70	134,81
827,89	151,20
828,07	190,11
828,25	165,53
828,44	204,44
828,62	190,11
828,80	220,83
828,98	202,40
829,17	159,39
829,35	126,62
829,53	128,67
829,72	186,01
829,90	143,01
830,08	136,86
830,27	233,12
830,45	214,68
830,63	251,55
830,81	226,97
831,00	138,91
831,18	48,80
831,36	243,36
831,55	210,59
831,73	136,86
831,91	106,14
832,09	251,55
832,28	259,74
832,46	143,01
832,64	161,44
832,82	138,91
833,01	179,87
833,19	237,21
833,37	108,19
833,55	128,67
833,74	128,67
833,92	116,38
834,10	124,57
834,29	46,75
834,47	89,76
834,65	186,01
834,83	114,33
835,02	77,47
835,20	110,24
835,38	169,63
835,56	177,82
835,75	165,53
835,93	206,49
836,11	147,10
836,29	65,18
836,47	143,01
836,66	69,28
836,84	224,92
837,02	126,62
837,20	224,92
837,39	251,55
837,57	118,43
837,75	100,00
837,93	143,01
838,12	69,28
838,30	134,81
838,48	196,25
838,66	153,24
838,84	253,60
839,03	177,82
839,21	93,85
839,39	77,47
839,57	186,01
839,75	169,63
839,94	110,24
840,12	134,81
840,30	145,05
840,48	138,91
840,66	81,57
840,85	106,14
841,03	159,39
841,21	130,72
841,39	233,12
841,57	114,33
841,76	81,57
841,94	231,07
842,12	169,63
842,30	89,76
842,48	212,64
842,67	147,10
842,85	110,24
843,03	161,44
843,21	167,58
843,39	153,24
843,57	106,14
843,76	122,53
843,94	38,56
844,12	161,44
844,30	48,80
844,48	194,20
844,66	183,96
844,85	128,67
845,03	251,55
845,21	157,34
845,39	167,58
845,57	231,07
845,75	124,57
845,94	159,39
846,12	181,92
846,30	91,81
846,48	106,14
846,66	226,97
846,84	120,48
847,02	173,72
847,21	124,57
847,39	124,57
847,57	181,92
847,75	46,75
847,93	77,47
848,11	67,23
848,29	89,76
848,48	87,71
848,66	71,33
848,84	192,16
849,02	145,05
849,20	44,70
849,38	186,01
849,56	106,14
849,74	183,96
849,93	249,50
850,11	100,00
850,29	167,58
850,47	167,58
850,65	132,77
850,83	83,61
851,01	157,34
851,19	214,68
851,37	-6,50
851,56	183,96
851,74	124,57
851,92	102,05
852,10	83,61
852,28	143,01
852,46	69,28
852,64	132,77
852,82	147,10
853,00	114,33
853,18	155,29
853,37	159,39
853,55	110,24
853,73	104,09
853,91	167,58
854,09	89,76
854,27	165,53
854,45	171,68
854,63	108,19
854,81	167,58
854,99	108,19
855,17	87,71
855,35	136,86
855,53	87,71
855,72	93,85
855,90	202,40
856,08	151,20
856,26	24,22
856,44	274,08
856,62	83,61
856,80	130,72
856,98	112,29
857,16	77,47
857,34	104,09
857,52	181,92
857,70	159,39
857,88	149,15
858,06	149,15
858,24	71,33
858,42	194,20
858,60	83,61
858,78	63,13
858,96	110,24
859,15	100,00
859,33	237,21
859,51	155,29
859,69	167,58
859,87	130,72
860,05	157,34
860,23	102,05
860,41	106,14
860,59	181,92
860,77	165,53
860,95	149,15
861,13	163,48
861,31	97,95
861,49	85,66
861,67	177,82
861,85	179,87
862,03	220,83
862,21	42,65
862,39	65,18
862,57	208,54
862,75	81,57
862,93	95,90
863,11	183,96
863,29	3,74
863,47	149,15
863,65	118,43
863,83	75,42
864,01	81,57
864,19	50,85
864,37	157,34
864,55	138,91
864,73	69,28
864,91	126,62
865,09	257,69
865,27	106,14
865,45	124,57
865,63	128,67
865,81	177,82
865,99	106,14
866,17	155,29
866,35	136,86
866,53	171,68
866,71	128,67
866,89	169,63
867,07	87,71
867,24	155,29
867,42	120,48
867,60	149,15
867,78	159,39
867,96	75,42
868,14	157,34
868,32	206,49
868,50	108,19
868,68	128,67
868,86	138,91
869,04	208,54
869,22	42,65
869,40	159,39
869,58	95,90
869,76	143,01
869,94	-14,69
870,12	38,56
870,30	120,48
870,48	77,47
870,66	132,77
870,83	100,00
871,01	102,05
871,19	95,90
871,37	95,90
871,55	83,61
871,73	175,77
871,91	175,77
872,09	194,20
872,27	100,00
872,45	124,57
872,63	-0,35
872,81	114,33
872,98	69,28
873,16	100,00
873,34	130,72
873,52	102,05
873,70	89,76
873,88	147,10
874,06	28,32
874,24	138,91
874,42	32,41
874,60	-4,45
874,78	7,84
874,95	89,76
875,13	79,52
875,31	114,33
875,49	167,58
875,67	145,05
875,85	63,13
876,03	46,75
876,21	169,63
876,39	79,52
876,56	89,76
876,74	32,41
876,92	77,47
877,10	204,44
877,28	114,33
877,46	83,61
877,64	214,68
877,82	132,77
877,99	67,23
878,17	95,90
878,35	104,09
878,53	118,43
878,71	114,33
878,89	151,20
879,07	147,10
879,24	167,58
879,42	192,16
879,60	26,27
879,78	186,01
879,96	44,70
880,14	206,49
880,32	81,57
880,49	48,80
880,67	136,86
880,85	79,52
881,03	59,04
881,21	106,14
881,39	165,53
881,56	167,58
881,74	104,09
881,92	85,66
882,10	97,95
882,28	65,18
882,46	171,68
882,63	28,32
882,81	44,70
882,99	67,23
883,17	177,82
883,35	186,01
883,52	106,14
883,70	124,57
883,88	143,01
884,06	169,63
884,24	136,86
884,42	167,58
884,59	134,81
884,77	165,53
884,95	157,34
885,13	126,62
885,31	163,48
885,48	91,81
885,66	163,48
885,84	149,15
886,02	102,05
886,20	200,35
886,37	91,81
886,55	181,92
886,73	159,39
886,91	89,76
887,08	120,48
887,26	116,38
887,44	106,14
887,62	91,81
887,80	151,20
887,97	155,29
888,15	167,58
888,33	83,61
888,51	97,95
888,68	116,38
888,86	114,33
889,04	63,13
889,22	106,14
889,40	130,72
889,57	147,10
889,75	216,73
889,93	124,57
890,11	106,14
890,28	140,96
890,46	77,47
890,64	118,43
890,82	143,01
890,99	106,14
891,17	77,47
891,35	112,29
891,53	102,05
891,70	24,22
891,88	100,00
892,06	71,33
892,24	75,42
892,41	48,80
892,59	77,47
892,77	11,94
892,94	65,18
893,12	83,61
893,30	20,13
893,48	118,43
893,65	196,25
893,83	93,85
894,01	97,95
894,19	71,33
894,36	210,59
894,54	34,46
894,72	118,43
894,89	91,81
895,07	73,37
895,25	114,33
895,43	52,89
895,60	165,53
895,78	126,62
895,96	93,85
896,13	151,20
896,31	143,01
896,49	149,15
896,66	85,66
896,84	198,30
897,02	163,48
897,20	143,01
897,37	16,03
897,55	79,52
897,73	210,59
897,90	108,19
898,08	120,48
898,26	149,15
898,43	124,57
898,61	122,53
898,79	106,14
898,96	110,24
899,14	38,56
899,32	52,89
899,49	87,71
899,67	143,01
899,85	190,11
900,02	163,48
900,20	95,90
900,38	100,00
900,55	222,88
900,73	231,07
900,91	16,03
901,08	175,77
901,26	112,29
901,44	143,01
901,61	100,00
901,79	153,24
901,97	132,77
902,14	61,09
902,32	108,19
902,50	52,89
902,67	114,33
902,85	140,96
903,02	59,04
903,20	65,18
903,38	122,53
903,55	93,85
903,73	122,53
903,91	171,68
904,08	153,24
904,26	32,41
904,44	212,64
904,61	36,51
904,79	100,00
904,96	128,67
905,14	97,95
905,32	155,29
905,49	87,71
905,67	20,13
905,84	30,37
906,02	65,18
906,20	81,57
906,37	173,72
906,55	114,33
906,73	81,57
906,90	89,76
907,08	149,15
907,25	106,14
907,43	153,24
907,61	44,70
907,78	110,24
907,96	42,65
908,13	114,33
908,31	159,39
908,48	108,19
908,66	73,37
908,84	54,94
909,01	157,34
909,19	147,10
909,36	75,42
909,54	59,04
909,72	157,34
909,89	20,13
910,07	42,65
910,24	192,16
910,42	186,01
910,59	102,05
910,77	85,66
910,95	75,42
911,12	73,37
911,30	112,29
911,47	95,90
911,65	93,85
911,82	112,29
912,00	124,57
912,17	67,23
912,35	143,01
912,53	190,11
912,70	85,66
912,88	67,23
913,05	112,29
913,23	54,94
913,40	85,66
913,58	36,51
913,75	48,80
913,93	1,70
914,10	52,89
914,28	75,42
914,46	7,84
914,63	89,76
914,81	140,96
914,98	44,70
915,16	110,24
915,33	87,71
915,51	149,15
915,68	171,68
915,86	147,10
916,03	38,56
916,21	91,81
916,38	59,04
916,56	-20,83
916,73	208,54
916,91	61,09
917,08	100,00
917,26	140,96
917,43	159,39
917,61	24,22
917,78	134,81
917,96	-2,40
918,13	32,41
918,31	143,01
918,48	63,13
918,66	13,98
918,83	126,62
919,01	95,90
919,18	5,79
919,36	-18,78
919,53	106,14
919,71	237,21
919,88	106,14
920,06	89,76
920,23	93,85
920,41	114,33
920,58	34,46
920,76	67,23
920,93	153,24
921,11	54,94
921,28	7,84
921,45	161,44
921,63	134,81
921,80	126,62
921,98	89,76
922,15	13,98
922,33	140,96
922,50	102,05
922,68	71,33
922,85	34,46
923,03	85,66
923,20	202,40
923,38	81,57
923,55	163,48
923,72	89,76
923,90	276,12
924,07	61,09
924,25	132,77
924,42	177,82
924,60	87,71
924,77	16,03
924,95	163,48
925,12	155,29
925,29	208,54
925,47	134,81
925,64	20,13
925,82	42,65
925,99	83,61
926,17	122,53
926,34	97,95
926,51	120,48
926,69	93,85
926,86	145,05
927,04	73,37
927,21	108,19
927,38	9,89
927,56	77,47
927,73	173,72
927,91	108,19
928,08	296,60
928,25	63,13
928,43	97,95
928,60	67,23
928,78	116,38
928,95	26,27
929,12	206,49
929,30	97,95
929,47	81,57
929,65	44,70
929,82	52,89
929,99	50,85
930,17	-6,50
930,34	83,61
930,52	83,61
930,69	7,84
930,86	56,99
931,04	89,76
931,21	32,41
931,38	67,23
931,56	138,91
931,73	132,77
931,91	59,04
932,08	50,85
932,25	155,29
932,43	81,57
932,60	89,76
932,77	106,14
932,95	20,13
933,12	93,85
933,29	69,28
933,47	118,43
933,64	30,37
933,82	102,05
933,99	106,14
934,16	46,75
934,34	122,53
934,51	79,52
934,68	128,67
934,86	175,77
935,03	50,85
935,20	85,66
935,38	50,85
935,55	106,14
935,72	147,10
935,90	26,27
936,07	81,57
936,24	79,52
936,42	138,91
936,59	83,61
936,76	183,96
936,94	13,98
937,11	97,95
937,28	28,32
937,46	59,04
937,63	143,01
937,80	126,62
937,97	143,01
938,15	102,05
938,32	20,13
938,49	175,77
938,67	32,41
938,84	81,57
939,01	50,85
939,19	44,70
939,36	147,10
939,53	-2,40
939,70	118,43
939,88	110,24
940,05	175,77
940,22	95,90
940,40	179,87
940,57	91,81
940,74	16,03
940,92	63,13
941,09	93,85
941,26	73,37
941,43	91,81
941,61	75,42
941,78	34,46
941,95	77,47
942,12	30,37
942,30	83,61
942,47	143,01
942,64	50,85
942,82	161,44
942,99	183,96
943,16	46,75
943,33	112,29
943,51	32,41
943,68	149,15
943,85	61,09
944,02	124,57
944,20	77,47
944,37	95,90
944,54	83,61
944,71	95,90
944,89	95,90
945,06	9,89
945,23	132,77
945,40	171,68
945,58	89,76
945,75	75,42
945,92	128,67
946,09	126,62
946,27	22,17
946,44	54,94
946,61	177,82
946,78	93,85
946,95	67,23
947,13	106,14
947,30	81,57
947,47	16,03
947,64	32,41
947,82	44,70
947,99	-18,78
948,16	110,24
948,33	69,28
948,50	44,70
948,68	112,29
948,85	13,98
949,02	145,05
949,19	59,04
949,36	130,72
949,54	104,09
949,71	149,15
949,88	77,47
950,05	138,91
950,22	81,57
950,40	67,23
950,57	20,13
950,74	173,72
950,91	93,85
951,08	63,13
951,26	114,33
951,43	85,66
951,60	-8,54
951,77	89,76
951,94	67,23
952,11	120,48
952,29	93,85
952,46	3,74
952,63	128,67
952,80	128,67
952,97	118,43
953,15	83,61
953,32	149,15
953,49	22,17
953,66	108,19
953,83	75,42
954,00	69,28
954,17	89,76
954,35	206,49
954,52	-33,12
954,69	134,81
954,86	122,53
955,03	132,77
955,20	22,17
955,38	26,27
955,55	77,47
955,72	155,29
955,89	71,33
956,06	136,86
956,23	73,37
956,40	95,90
956,58	34,46
956,75	75,42
956,92	-12,64
957,09	83,61
957,26	122,53
957,43	81,57
957,60	116,38
957,77	75,42
957,95	181,92
958,12	136,86
958,29	186,01
958,46	124,57
958,63	11,94
958,80	81,57
958,97	216,73
959,14	81,57
959,31	20,13
959,49	89,76
959,66	61,09
959,83	9,89
960,00	42,65
960,17	167,58
960,34	116,38
960,51	1,70
960,68	153,24
960,85	110,24
961,02	63,13
961,20	59,04
961,37	9,89
961,54	132,77
961,71	106,14
961,88	59,04
962,05	77,47
962,22	196,25
962,39	85,66
962,56	48,80
962,73	13,98
962,90	11,94
963,07	77,47
963,24	93,85
963,42	22,17
963,59	151,20
963,76	104,09
963,93	249,50
964,10	-0,35
964,27	36,51
964,44	114,33
964,61	136,86
964,78	40,61
964,95	112,29
965,12	36,51
965,29	140,96
965,46	120,48
965,63	122,53
965,80	28,32
965,97	20,13
966,14	22,17
966,31	81,57
966,48	67,23
966,66	130,72
966,83	171,68
967,00	26,27
967,17	112,29
967,34	104,09
967,51	188,06
967,68	106,14
967,85	-20,83
968,02	173,72
968,19	11,94
968,36	97,95
968,53	24,22
968,70	83,61
968,87	73,37
969,04	106,14
969,21	16,03
969,38	173,72
969,55	1,70
969,72	130,72
969,89	120,48
970,06	110,24
970,23	95,90
970,40	173,72
970,57	130,72
970,74	100,00
970,91	87,71
971,08	13,98
971,25	54,94
971,42	30,37
971,59	54,94
971,76	40,61
971,93	91,81
972,10	114,33
972,27	77,47
972,44	116,38
972,61	44,70
972,78	40,61
972,95	85,66
973,12	179,87
973,29	97,95
973,46	34,46
973,63	38,56
973,80	136,86
973,97	18,08
974,14	116,38
974,30	97,95
974,47	159,39
974,64	145,05
974,81	59,04
974,98	163,48
975,15	61,09
975,32	153,24
975,49	134,81
975,66	126,62
975,83	149,15
976,00	118,43
976,17	18,08
976,34	32,41
976,51	40,61
976,68	5,79
976,85	79,52
977,02	100,00
977,19	110,24
977,36	48,80
977,52	140,96
977,69	77,47
977,86	202,40
978,03	50,85
978,20	59,04
978,37	34,46
978,54	132,77
978,71	155,29
978,88	165,53
979,05	61,09
979,22	18,08
979,39	161,44
979,56	97,95
979,72	42,65
979,89	61,09
980,06	179,87
980,23	212,64
980,40	93,85
980,57	108,19
980,74	63,13
980,91	18,08
981,08	104,09
981,25	67,23
981,41	114,33
981,58	7,84
981,75	-49,50
981,92	140,96
982,09	52,89
982,26	26,27
982,43	-8,54
982,60	75,42
982,77	87,71
982,93	116,38
983,10	48,80
983,27	9,89
983,44	38,56
983,61	153,24
983,78	44,70
983,95	-47,46
984,11	61,09
984,28	143,01
984,45	11,94
984,62	97,95
984,79	93,85
984,96	44,70
985,13	22,17
985,30	114,33
985,46	5,79
985,63	34,46
985,80	67,23
985,97	52,89
986,14	-22,88
986,31	73,37
986,47	100,00
986,64	112,29
986,81	89,76
986,98	22,17
987,15	11,94
987,32	63,13
987,48	44,70
987,65	36,51
987,82	32,41
987,99	93,85
988,16	566,93
988,33	165,53
988,49	95,90
988,66	147,10
988,83	83,61
989,00	179,87
989,17	46,75
989,34	183,96
989,50	97,95
989,67	-53,60
989,84	13,98
990,01	-0,35
990,18	153,24
990,34	77,47
990,51	-8,54
990,68	77,47
990,85	169,63
991,02	34,46
991,18	30,37
991,35	65,18
991,52	126,62
991,69	11,94
991,86	38,56
992,02	5,79
992,19	-24,93
992,36	114,33
992,53	134,81
992,69	24,22
992,86	44,70
993,03	222,88
993,20	-4,45
993,37	159,39
993,53	212,64
993,70	136,86
993,87	-22,88
994,04	-16,74
994,20	18,08
994,37	59,04
994,54	112,29
994,71	42,65
994,87	122,53
995,04	79,52
995,21	71,33
995,38	87,71
995,55	22,17
995,71	52,89
995,88	85,66
996,05	52,89
996,22	114,33
996,38	61,09
996,55	61,09
996,72	73,37
996,88	188,06
997,05	890,51
997,22	11,94
997,39	26,27
997,55	91,81
997,72	75,42
997,89	63,13
998,06	42,65
998,22	126,62
998,39	97,95
998,56	93,85
998,73	18,08
998,89	85,66
999,06	106,14
999,23	83,61
999,39	48,80
999,56	93,85
999,73	73,37
999,90	24,22
1000,06	16,03
1000,23	65,18
1000,40	114,33
1000,56	83,61
1000,73	28,32
1000,90	138,91
1001,06	110,24
1001,23	7,84
1001,40	147,10
1001,57	106,14
1001,73	44,70
1001,90	-61,79
1002,07	1,70
1002,23	71,33
1002,40	40,61
1002,57	61,09
1002,73	71,33
1002,90	97,95
1003,07	138,91
1003,23	-78,18
1003,40	77,47
1003,57	65,18
1003,73	30,37
1003,90	93,85
1004,07	89,76
1004,23	13,98
1004,40	61,09
1004,57	7,84
1004,73	-35,17
1004,90	147,10
1005,07	97,95
1005,23	48,80
1005,40	89,76
1005,57	42,65
1005,73	161,44
1005,90	-22,88
1006,07	38,56
1006,23	128,67
1006,40	59,04
1006,57	73,37
1006,73	97,95
1006,90	102,05
1007,06	56,99
1007,23	81,57
1007,40	56,99
1007,56	112,29
1007,73	200,35
1007,90	106,14
1008,06	89,76
1008,23	28,32
1008,40	108,19
1008,56	24,22
1008,73	89,76
1008,89	79,52
1009,06	159,39
1009,23	5,79
1009,39	128,67
1009,56	40,61
1009,72	50,85
1009,89	87,71
1010,06	73,37
1010,22	46,75
1010,39	26,27
1010,55	79,52
1010,72	100,00
1010,89	1,70
1011,05	102,05
1011,22	56,99
1011,38	32,41
1011,55	26,27
1011,72	11,94
1011,88	85,66
1012,05	67,23
1012,21	104,09
1012,38	93,85
1012,55	48,80
1012,71	-18,78
1012,88	122,53
1013,04	130,72
1013,21	65,18
1013,37	118,43
1013,54	97,95
1013,71	75,42
1013,87	61,09
1014,04	122,53
1014,20	89,76
1014,37	32,41
1014,53	85,66
1014,70	-4,45
1014,87	110,24
1015,03	149,15
1015,20	77,47
1015,36	34,46
1015,53	18,08
1015,69	65,18
1015,86	102,05
1016,02	44,70
1016,19	118,43
1016,36	63,13
1016,52	52,89
1016,69	118,43
1016,85	89,76
1017,02	140,96
1017,18	102,05
1017,35	54,94
1017,51	30,37
1017,68	159,39
1017,84	20,13
1018,01	-33,12
1018,17	87,71
1018,34	216,73
1018,50	40,61
1018,67	38,56
1018,84	138,91
1019,00	16,03
1019,17	89,76
1019,33	77,47
1019,50	130,72
1019,66	130,72
1019,83	-69,98
1019,99	104,09
1020,16	-0,35
1020,32	34,46
1020,49	104,09
1020,65	67,23
1020,82	104,09
1020,98	151,20
1021,15	44,70
1021,31	233,12
1021,48	87,71
1021,64	69,28
1021,81	75,42
1021,97	59,04
1022,14	100,00
1022,30	75,42
1022,47	50,85
1022,63	44,70
1022,79	71,33
1022,96	95,90
1023,12	122,53
1023,29	73,37
1023,45	159,39
1023,62	81,57
1023,78	44,70
1023,95	-22,88
1024,11	108,19
1024,28	7,84
1024,44	34,46
1024,61	3,74
1024,77	24,22
1024,94	71,33
1025,10	44,70
1025,26	-18,78
1025,43	73,37
1025,59	54,94
1025,76	56,99
1025,92	75,42
1026,09	48,80
1026,25	132,77
1026,42	-0,35
1026,58	-26,98
1026,74	124,57
1026,91	22,17
1027,07	93,85
1027,24	198,30
1027,40	9,89
1027,57	132,77
1027,73	81,57
1027,90	140,96
1028,06	24,22
1028,22	30,37
1028,39	36,51
1028,55	136,86
1028,72	7,84
1028,88	200,35
1029,04	81,57
1029,21	85,66
1029,37	7,84
1029,54	114,33
1029,70	97,95
1029,87	-22,88
1030,03	28,32
1030,19	132,77
1030,36	-8,54
1030,52	38,56
1030,69	-33,12
1030,85	5,79
1031,01	95,90
1031,18	116,38
1031,34	122,53
1031,50	71,33
1031,67	108,19
1031,83	50,85
1032,00	52,89
1032,16	100,00
1032,32	40,61
1032,49	91,81
1032,65	106,14
1032,82	87,71
1032,98	52,89
1033,14	-16,74
1033,31	140,96
1033,47	204,44
1033,63	106,14
1033,80	73,37
1033,96	34,46
1034,13	198,30
1034,29	97,95
1034,45	67,23
1034,62	16,03
1034,78	140,96
1034,94	40,61
1035,11	140,96
1035,27	44,70
1035,43	136,86
1035,60	75,42
1035,76	11,94
1035,92	104,09
1036,09	134,81
1036,25	71,33
1036,41	65,18
1036,58	134,81
1036,74	102,05
1036,90	-16,74
1037,07	67,23
1037,23	48,80
1037,39	204,44
1037,56	56,99
1037,72	108,19
1037,88	104,09
1038,05	7,84
1038,21	138,91
1038,37	87,71
1038,54	59,04
1038,70	169,63
1038,86	104,09
1039,03	143,01
1039,19	48,80
1039,35	65,18
1039,52	1,70
1039,68	3,74
1039,84	-37,22
1040,00	73,37
1040,17	48,80
1040,33	73,37
1040,49	22,17
1040,66	157,34
1040,82	81,57
1040,98	85,66
1041,15	67,23
1041,31	26,27
1041,47	97,95
1041,63	-16,74
1041,80	79,52
1041,96	157,34
1042,12	54,94
1042,29	67,23
1042,45	130,72
1042,61	-4,45
1042,77	97,95
1042,94	147,10
1043,10	222,88
1043,26	77,47
1043,42	-22,88
1043,59	63,13
1043,75	77,47
1043,91	52,89
1044,07	22,17
1044,24	67,23
1044,40	108,19
>>>>>End Processed Spectral Data<<<<<
